Data from 12-12-AQDScycling_Absorbance__308__00308.txt Node

Date: Tue Dec 12 12:13:44 EST 2023
User: kyuminlee
Spectrometer: FLMS00943
Trigger mode: 0
Integration Time (sec): 1.000000E-1
Scans to average: 1
Electric dark correction enabled: true
Nonlinearity correction enabled: false
Boxcar width: 0
XAxis mode: Wavelengths
Number of Pixels in Spectrum: 2048
>>>>>Begin Spectral Data<<<<<
179.651	-0
180.037	-0
180.424	-0
180.81	-0
181.197	0.1
181.583	-0
181.97	0.42
182.356	-0
182.743	-0
183.129	-0.03
183.515	1.42
183.901	-0
184.288	0.16
184.674	1.17
185.06	-0.62
185.446	-0
185.832	-1.29
186.218	0.21
186.604	0.21
186.99	-0
187.376	0.25
187.762	-0.47
188.148	0.97
188.534	-0.18
188.92	0.1
189.305	-0.06
189.691	0.2
190.077	0.11
190.463	0.15
190.848	0.18
191.234	0.01
191.619	-0.02
192.005	0.23
192.391	0.14
192.776	0.1
193.161	0.15
193.547	0.33
193.932	0.08
194.318	0.09
194.703	0.13
195.088	0.37
195.473	0.16
195.859	0.16
196.244	0.19
196.629	0.15
197.014	0.01
197.399	0.11
197.784	0.15
198.169	0.31
198.554	0.19
198.939	0.1
199.324	-0
199.709	0.03
200.094	0.14
200.478	0.11
200.863	0.16
201.248	0.12
201.633	0.25
202.017	0.11
202.402	0.19
202.787	0.06
203.171	0.11
203.556	0.14
203.94	0.15
204.325	0.18
204.709	0.18
205.093	0.08
205.478	0.1
205.862	0.04
206.246	0.17
206.631	0.21
207.015	0.16
207.399	0.17
207.783	0.03
208.167	0.28
208.551	0.36
208.935	0.26
209.319	0.15
209.703	0.2
210.087	0.28
210.471	0
210.855	-0.01
211.239	0.13
211.623	0.25
212.007	0.26
212.39	0.32
212.774	0.21
213.158	0.03
213.541	0.29
213.925	0.17
214.309	0.38
214.692	0.23
215.076	0.33
215.459	0.18
215.842	0.17
216.226	0.19
216.609	0.33
216.993	0.2
217.376	0.33
217.759	0.25
218.142	0.33
218.525	0.34
218.909	0.35
219.292	0.3
219.675	0.34
220.058	0.4
220.441	0.43
220.824	0.49
221.207	0.49
221.59	0.43
221.973	0.53
222.355	0.59
222.738	0.59
223.121	0.5
223.504	0.46
223.886	0.58
224.269	0.67
224.652	0.64
225.034	0.68
225.417	0.78
225.799	0.84
226.182	0.89
226.564	0.84
226.947	0.68
227.329	0.78
227.711	1.03
228.094	0.99
228.476	0.94
228.858	0.79
229.24	0.79
229.623	0.86
230.005	0.81
230.387	0.86
230.769	0.82
231.151	1.02
231.533	0.91
231.915	0.93
232.297	1.04
232.679	0.96
233.061	0.94
233.442	0.99
233.824	1.12
234.206	1.01
234.588	0.99
234.969	1
235.351	0.93
235.733	1.04
236.114	1.1
236.496	1.09
236.877	1.08
237.259	1.09
237.64	1.03
238.022	0.92
238.403	1.01
238.784	0.95
239.165	0.99
239.547	1.02
239.928	1.13
240.309	1.21
240.69	0.99
241.071	1.09
241.452	1.09
241.834	1.08
242.215	1.06
242.595	1.1
242.976	1.06
243.357	1.1
243.738	0.91
244.119	1.2
244.5	1.14
244.881	1.3
245.261	1.21
245.642	1.21
246.023	1.13
246.403	1.18
246.784	1.2
247.164	1.3
247.545	1.24
247.925	1.17
248.306	1.28
248.686	1.46
249.067	1.18
249.447	1.37
249.827	1.5
250.207	1.62
250.588	1.21
250.968	1.53
251.348	1.31
251.728	1.39
252.108	1.52
252.488	1.36
252.868	1.38
253.248	1.31
253.628	1.32
254.008	1.5
254.388	1.32
254.768	1.31
255.147	1.36
255.527	1.33
255.907	1.32
256.287	1.35
256.666	1.44
257.046	1.46
257.425	1.45
257.805	1.27
258.184	1.34
258.564	1.34
258.943	1.3
259.323	1.57
259.702	1.44
260.081	1.4
260.461	1.41
260.84	1.45
261.219	1.75
261.598	1.49
261.977	1.42
262.356	1.53
262.736	1.49
263.115	1.52
263.494	1.43
263.873	1.63
264.251	1.41
264.63	1.48
265.009	1.45
265.388	1.45
265.767	1.5
266.145	1.57
266.524	1.48
266.903	1.4
267.281	1.42
267.66	1.43
268.039	1.53
268.417	1.32
268.796	1.42
269.174	1.39
269.552	1.32
269.931	1.43
270.309	1.45
270.687	1.49
271.066	1.41
271.444	1.37
271.822	1.55
272.2	1.36
272.578	1.6
272.956	1.43
273.334	1.44
273.712	1.4
274.09	1.39
274.468	1.29
274.846	1.43
275.224	1.37
275.602	1.48
275.98	1.52
276.357	1.51
276.735	1.47
277.113	1.36
277.49	1.46
277.868	1.37
278.246	1.45
278.623	1.3
279.001	1.28
279.378	1.39
279.756	1.44
280.133	1.52
280.51	1.37
280.888	1.31
281.265	1.3
281.642	1.39
282.019	1.61
282.396	1.64
282.773	1.44
283.151	1.42
283.528	1.51
283.905	1.46
284.282	1.54
284.659	1.58
285.035	1.35
285.412	1.34
285.789	1.56
286.166	1.49
286.543	1.57
286.919	1.46
287.296	1.32
287.673	1.67
288.049	1.4
288.426	1.57
288.802	1.41
289.179	1.7
289.555	1.51
289.932	1.43
290.308	1.32
290.684	1.51
291.061	1.35
291.437	1.58
291.813	1.48
292.189	1.43
292.565	1.31
292.942	1.33
293.318	1.41
293.694	1.38
294.07	1.34
294.446	1.42
294.822	1.43
295.197	1.54
295.573	1.36
295.949	1.56
296.325	1.43
296.701	1.42
297.076	1.44
297.452	1.49
297.828	1.39
298.203	1.54
298.579	1.35
298.954	1.42
299.33	1.45
299.705	1.49
300.081	1.48
300.456	1.43
300.831	1.35
301.206	1.45
301.582	1.44
301.957	1.46
302.332	1.5
302.707	1.37
303.082	1.32
303.457	1.37
303.832	1.36
304.207	1.26
304.582	1.29
304.957	1.31
305.332	1.29
305.707	1.26
306.082	1.3
306.456	1.31
306.831	1.26
307.206	1.19
307.58	1.25
307.955	1.2
308.33	1.26
308.704	1.21
309.079	1.15
309.453	1.24
309.828	1.22
310.202	1.22
310.576	1.16
310.951	1.22
311.325	1.2
311.699	1.2
312.073	1.12
312.447	1.11
312.821	1.12
313.196	1.18
313.57	1.12
313.944	1.13
314.317	1.07
314.691	1.19
315.065	1.13
315.439	1.16
315.813	1.15
316.187	1.13
316.56	1.17
316.934	1.15
317.308	1.09
317.681	1.17
318.055	1.18
318.428	1.15
318.802	1.15
319.175	1.1
319.549	1.1
319.922	1.13
320.295	1.07
320.669	1.21
321.042	1.14
321.415	1.27
321.788	1.12
322.162	1.07
322.535	1.15
322.908	1.13
323.281	1.1
323.654	1.16
324.027	1.11
324.4	1.13
324.773	1.15
325.145	1.22
325.518	1.09
325.891	1.13
326.264	1.24
326.636	1.12
327.009	1.18
327.382	1.11
327.754	1.19
328.127	1.15
328.499	1.18
328.872	1.19
329.244	1.18
329.616	1.1
329.989	1.16
330.361	1.15
330.733	1.19
331.106	1.21
331.478	1.28
331.85	1.17
332.222	1.14
332.594	1.24
332.966	1.21
333.338	1.3
333.71	1.23
334.082	1.24
334.454	1.1
334.826	1.26
335.197	1.24
335.569	1.24
335.941	1.17
336.312	1.31
336.684	1.23
337.056	1.28
337.427	1.26
337.799	1.37
338.17	1.26
338.542	1.24
338.913	1.29
339.284	1.32
339.656	1.33
340.027	1.36
340.398	1.26
340.769	1.21
341.141	1.32
341.512	1.25
341.883	1.33
342.254	1.26
342.625	1.33
342.996	1.25
343.367	1.25
343.738	1.3
344.108	1.31
344.479	1.29
344.85	1.19
345.221	1.29
345.591	1.22
345.962	1.32
346.333	1.28
346.703	1.13
347.074	1.17
347.444	1.17
347.815	1.23
348.185	1.36
348.556	1.23
348.926	1.23
349.296	1.24
349.666	1.18
350.037	1.16
350.407	1.14
350.777	1.21
351.147	1.33
351.517	1.23
351.887	1.3
352.257	1.3
352.627	1.28
352.997	1.3
353.367	1.4
353.737	1.42
354.106	1.33
354.476	1.3
354.846	1.32
355.216	1.39
355.585	1.38
355.955	1.37
356.324	1.48
356.694	1.37
357.063	1.34
357.433	1.34
357.802	1.37
358.171	1.41
358.541	1.35
358.91	1.45
359.279	1.52
359.648	1.34
360.017	1.42
360.387	1.47
360.756	1.39
361.125	1.48
361.494	1.63
361.863	1.48
362.231	1.41
362.6	1.48
362.969	1.5
363.338	1.45
363.707	1.54
364.075	1.56
364.444	1.36
364.813	1.36
365.181	1.39
365.55	1.52
365.918	1.59
366.287	1.62
366.655	1.57
367.024	1.61
367.392	1.49
367.76	1.43
368.128	1.52
368.497	1.37
368.865	1.35
369.233	1.45
369.601	1.44
369.969	1.53
370.337	1.5
370.705	1.51
371.073	1.62
371.441	1.43
371.809	1.43
372.177	1.41
372.544	1.6
372.912	1.62
373.28	1.44
373.647	1.5
374.015	1.63
374.383	1.72
374.75	1.51
375.118	1.53
375.485	1.52
375.853	1.53
376.22	1.5
376.587	1.53
376.955	1.68
377.322	1.69
377.689	1.57
378.056	1.38
378.423	1.64
378.79	1.52
379.157	1.55
379.524	1.66
379.891	1.47
380.258	1.61
380.625	1.47
380.992	1.53
381.359	1.54
381.726	1.72
382.092	1.48
382.459	1.46
382.826	1.6
383.192	1.58
383.559	1.64
383.925	1.55
384.292	1.47
384.658	1.66
385.025	1.46
385.391	1.74
385.757	1.58
386.123	1.49
386.49	1.53
386.856	1.56
387.222	1.54
387.588	1.56
387.954	1.78
388.32	1.75
388.686	1.53
389.052	1.46
389.418	1.51
389.784	1.67
390.15	1.71
390.515	1.38
390.881	1.91
391.247	1.47
391.613	1.63
391.978	1.43
392.344	1.72
392.709	1.62
393.075	1.51
393.44	1.66
393.806	1.62
394.171	1.47
394.536	1.59
394.902	1.58
395.267	1.61
395.632	1.49
395.997	1.46
396.362	1.55
396.727	1.6
397.092	1.52
397.457	1.56
397.822	1.56
398.187	1.63
398.552	1.6
398.917	1.69
399.282	1.64
399.646	1.59
400.011	1.69
400.376	1.39
400.74	1.41
401.105	1.49
401.47	1.53
401.834	1.6
402.199	1.51
402.563	1.61
402.927	1.52
403.292	1.65
403.656	1.53
404.02	1.58
404.384	1.61
404.749	1.63
405.113	1.64
405.477	1.67
405.841	1.61
406.205	1.53
406.569	1.53
406.933	1.57
407.296	1.53
407.66	1.51
408.024	1.58
408.388	1.55
408.752	1.61
409.115	1.57
409.479	1.61
409.842	1.61
410.206	1.44
410.569	1.56
410.933	1.61
411.296	1.37
411.66	1.57
412.023	1.53
412.386	1.45
412.749	1.38
413.113	1.45
413.476	1.39
413.839	1.47
414.202	1.51
414.565	1.32
414.928	1.44
415.291	1.34
415.654	1.39
416.017	1.53
416.38	1.36
416.742	1.31
417.105	1.4
417.468	1.37
417.83	1.5
418.193	1.48
418.556	1.43
418.918	1.42
419.281	1.4
419.643	1.49
420.005	1.49
420.368	1.41
420.73	1.5
421.092	1.67
421.455	1.51
421.817	1.33
422.179	1.41
422.541	1.48
422.903	1.49
423.265	1.52
423.627	1.46
423.989	1.47
424.351	1.34
424.713	1.52
425.075	1.49
425.436	1.38
425.798	1.48
426.16	1.56
426.521	1.41
426.883	1.45
427.245	1.48
427.606	1.36
427.967	1.27
428.329	1.4
428.69	1.43
429.052	1.46
429.413	1.44
429.774	1.41
430.135	1.44
430.497	1.49
430.858	1.5
431.219	1.37
431.58	1.29
431.941	1.44
432.302	1.39
432.663	1.42
433.024	1.39
433.384	1.37
433.745	1.41
434.106	1.44
434.467	1.33
434.827	1.33
435.188	1.39
435.548	1.51
435.909	1.36
436.269	1.5
436.63	1.36
436.99	1.39
437.351	1.27
437.711	1.3
438.071	1.3
438.431	1.27
438.792	1.29
439.152	1.27
439.512	1.31
439.872	1.3
440.232	1.33
440.592	1.28
440.952	1.28
441.312	1.25
441.671	1.33
442.031	1.29
442.391	1.26
442.751	1.29
443.11	1.28
443.47	1.21
443.83	1.26
444.189	1.24
444.549	1.21
444.908	1.21
445.267	1.22
445.627	1.18
445.986	1.23
446.345	1.18
446.705	1.22
447.064	1.17
447.423	1.2
447.782	1.15
448.141	1.19
448.5	1.12
448.859	1.13
449.218	1.14
449.577	1.15
449.936	1.15
450.295	1.15
450.653	1.12
451.012	1.11
451.371	1.1
451.729	1.13
452.088	1.09
452.447	1.06
452.805	1.08
453.163	1.09
453.522	1.06
453.88	1.04
454.239	1.04
454.597	1.05
454.955	1.02
455.313	1.01
455.671	0.99
456.029	1
456.388	0.96
456.746	0.96
457.104	0.95
457.461	0.95
457.819	0.95
458.177	0.93
458.535	0.9
458.893	0.9
459.25	0.9
459.608	0.91
459.966	0.87
460.323	0.87
460.681	0.83
461.038	0.83
461.396	0.84
461.753	0.82
462.111	0.82
462.468	0.79
462.825	0.79
463.182	0.78
463.54	0.77
463.897	0.77
464.254	0.76
464.611	0.75
464.968	0.73
465.325	0.73
465.682	0.7
466.039	0.71
466.395	0.69
466.752	0.69
467.109	0.67
467.466	0.67
467.822	0.66
468.179	0.65
468.535	0.64
468.892	0.62
469.248	0.61
469.605	0.6
469.961	0.61
470.318	0.61
470.674	0.59
471.03	0.58
471.386	0.58
471.743	0.56
472.099	0.55
472.455	0.55
472.811	0.54
473.167	0.53
473.523	0.51
473.879	0.5
474.235	0.5
474.59	0.49
474.946	0.49
475.302	0.48
475.657	0.47
476.013	0.46
476.369	0.45
476.724	0.46
477.08	0.45
477.435	0.44
477.791	0.44
478.146	0.44
478.501	0.42
478.857	0.41
479.212	0.41
479.567	0.4
479.922	0.39
480.277	0.38
480.632	0.38
480.987	0.38
481.342	0.37
481.697	0.35
482.052	0.35
482.407	0.35
482.762	0.35
483.116	0.34
483.471	0.32
483.826	0.32
484.18	0.32
484.535	0.31
484.89	0.31
485.244	0.31
485.598	0.31
485.953	0.3
486.307	0.3
486.661	0.3
487.016	0.29
487.37	0.29
487.724	0.28
488.078	0.28
488.432	0.28
488.786	0.28
489.14	0.26
489.494	0.27
489.848	0.25
490.202	0.26
490.556	0.25
490.91	0.25
491.263	0.23
491.617	0.24
491.971	0.24
492.324	0.24
492.678	0.24
493.031	0.24
493.385	0.23
493.738	0.23
494.091	0.23
494.445	0.22
494.798	0.22
495.151	0.21
495.504	0.21
495.857	0.21
496.21	0.21
496.564	0.2
496.916	0.21
497.269	0.2
497.622	0.21
497.975	0.2
498.328	0.2
498.681	0.19
499.033	0.2
499.386	0.2
499.739	0.19
500.091	0.19
500.444	0.19
500.796	0.19
501.149	0.18
501.501	0.18
501.854	0.18
502.206	0.18
502.558	0.18
502.91	0.18
503.263	0.17
503.615	0.18
503.967	0.17
504.319	0.17
504.671	0.17
505.023	0.16
505.375	0.17
505.726	0.16
506.078	0.16
506.43	0.16
506.782	0.15
507.133	0.16
507.485	0.17
507.837	0.17
508.188	0.16
508.54	0.16
508.891	0.17
509.243	0.15
509.594	0.16
509.945	0.16
510.296	0.16
510.648	0.16
510.999	0.16
511.35	0.15
511.701	0.15
512.052	0.16
512.403	0.15
512.754	0.15
513.105	0.15
513.456	0.15
513.807	0.15
514.157	0.15
514.508	0.15
514.859	0.15
515.209	0.15
515.56	0.15
515.91	0.14
516.261	0.15
516.611	0.14
516.962	0.14
517.312	0.15
517.662	0.15
518.013	0.15
518.363	0.15
518.713	0.14
519.063	0.14
519.413	0.14
519.763	0.15
520.113	0.14
520.463	0.15
520.813	0.15
521.163	0.14
521.512	0.14
521.862	0.14
522.212	0.15
522.562	0.15
522.911	0.14
523.261	0.14
523.61	0.14
523.96	0.14
524.309	0.15
524.658	0.15
525.008	0.13
525.357	0.14
525.706	0.15
526.056	0.14
526.405	0.14
526.754	0.14
527.103	0.14
527.452	0.14
527.801	0.15
528.15	0.14
528.499	0.14
528.847	0.14
529.196	0.15
529.545	0.14
529.893	0.15
530.242	0.15
530.591	0.15
530.939	0.16
531.288	0.15
531.636	0.15
531.985	0.15
532.333	0.15
532.681	0.15
533.029	0.15
533.378	0.15
533.726	0.15
534.074	0.15
534.422	0.15
534.77	0.16
535.118	0.15
535.466	0.15
535.814	0.15
536.162	0.15
536.509	0.15
536.857	0.15
537.205	0.16
537.552	0.16
537.9	0.15
538.248	0.14
538.595	0.15
538.943	0.15
539.29	0.15
539.637	0.15
539.985	0.15
540.332	0.15
540.679	0.15
541.026	0.14
541.373	0.16
541.721	0.14
542.068	0.14
542.415	0.15
542.762	0.14
543.108	0.14
543.455	0.14
543.802	0.14
544.149	0.14
544.496	0.14
544.842	0.14
545.189	0.13
545.535	0.14
545.882	0.14
546.228	0.14
546.575	0.14
546.921	0.14
547.267	0.14
547.614	0.14
547.96	0.14
548.306	0.14
548.652	0.14
548.998	0.14
549.344	0.13
549.69	0.14
550.036	0.14
550.382	0.14
550.728	0.13
551.074	0.15
551.42	0.14
551.765	0.15
552.111	0.14
552.457	0.15
552.802	0.14
553.148	0.14
553.493	0.14
553.839	0.15
554.184	0.15
554.529	0.14
554.875	0.15
555.22	0.15
555.565	0.15
555.91	0.14
556.255	0.15
556.6	0.15
556.945	0.15
557.29	0.13
557.635	0.15
557.98	0.15
558.325	0.15
558.67	0.14
559.014	0.15
559.359	0.15
559.704	0.15
560.048	0.14
560.393	0.15
560.737	0.13
561.082	0.15
561.426	0.13
561.77	0.15
562.115	0.13
562.459	0.14
562.803	0.13
563.147	0.14
563.491	0.14
563.835	0.14
564.179	0.14
564.523	0.14
564.867	0.13
565.211	0.14
565.555	0.14
565.899	0.15
566.242	0.14
566.586	0.13
566.93	0.14
567.273	0.14
567.617	0.15
567.96	0.15
568.304	0.15
568.647	0.14
568.99	0.15
569.334	0.15
569.677	0.15
570.02	0.14
570.363	0.15
570.706	0.15
571.049	0.14
571.392	0.15
571.735	0.14
572.078	0.14
572.421	0.14
572.764	0.14
573.106	0.15
573.449	0.14
573.792	0.14
574.134	0.14
574.477	0.15
574.819	0.14
575.162	0.14
575.504	0.14
575.847	0.14
576.189	0.15
576.531	0.14
576.873	0.14
577.215	0.14
577.558	0.15
577.9	0.14
578.242	0.14
578.584	0.14
578.926	0.15
579.267	0.15
579.609	0.14
579.951	0.15
580.293	0.15
580.634	0.14
580.976	0.14
581.318	0.15
581.659	0.14
582.001	0.15
582.342	0.14
582.683	0.15
583.025	0.14
583.366	0.14
583.707	0.14
584.049	0.14
584.39	0.14
584.731	0.14
585.072	0.14
585.413	0.14
585.754	0.14
586.095	0.14
586.435	0.14
586.776	0.14
587.117	0.14
587.458	0.14
587.798	0.14
588.139	0.14
588.48	0.14
588.82	0.14
589.161	0.14
589.501	0.13
589.841	0.14
590.182	0.14
590.522	0.13
590.862	0.14
591.202	0.14
591.542	0.13
591.882	0.14
592.222	0.14
592.562	0.13
592.902	0.14
593.242	0.13
593.582	0.14
593.922	0.14
594.261	0.14
594.601	0.14
594.941	0.14
595.28	0.14
595.62	0.14
595.959	0.14
596.299	0.14
596.638	0.14
596.977	0.13
597.317	0.14
597.656	0.14
597.995	0.13
598.334	0.15
598.673	0.14
599.012	0.14
599.351	0.14
599.69	0.13
600.029	0.14
600.368	0.13
600.707	0.13
601.046	0.14
601.384	0.14
601.723	0.13
602.061	0.13
602.4	0.14
602.738	0.14
603.077	0.14
603.415	0.13
603.754	0.14
604.092	0.14
604.43	0.13
604.768	0.14
605.107	0.14
605.445	0.14
605.783	0.14
606.121	0.13
606.459	0.14
606.796	0.13
607.134	0.13
607.472	0.13
607.81	0.14
608.148	0.13
608.485	0.13
608.823	0.14
609.16	0.13
609.498	0.14
609.835	0.13
610.173	0.14
610.51	0.13
610.847	0.14
611.185	0.14
611.522	0.13
611.859	0.14
612.196	0.14
612.533	0.15
612.87	0.14
613.207	0.14
613.544	0.15
613.881	0.15
614.217	0.14
614.554	0.14
614.891	0.14
615.228	0.14
615.564	0.14
615.901	0.15
616.237	0.15
616.574	0.14
616.91	0.15
617.246	0.15
617.583	0.14
617.919	0.15
618.255	0.15
618.591	0.14
618.927	0.14
619.263	0.15
619.599	0.15
619.935	0.15
620.271	0.15
620.607	0.14
620.943	0.14
621.279	0.14
621.614	0.14
621.95	0.14
622.286	0.14
622.621	0.13
622.957	0.13
623.292	0.14
623.627	0.13
623.963	0.12
624.298	0.13
624.633	0.13
624.968	0.13
625.304	0.13
625.639	0.13
625.974	0.13
626.309	0.13
626.644	0.13
626.979	0.13
627.313	0.13
627.648	0.13
627.983	0.13
628.318	0.12
628.652	0.12
628.987	0.12
629.321	0.13
629.656	0.12
629.99	0.12
630.325	0.12
630.659	0.13
630.993	0.13
631.327	0.13
631.662	0.11
631.996	0.12
632.33	0.13
632.664	0.12
632.998	0.12
633.332	0.12
633.666	0.12
633.999	0.12
634.333	0.12
634.667	0.12
635.001	0.12
635.334	0.12
635.668	0.12
636.001	0.12
636.335	0.12
636.668	0.12
637.001	0.11
637.335	0.12
637.668	0.12
638.001	0.11
638.334	0.12
638.668	0.11
639.001	0.12
639.334	0.11
639.667	0.11
639.999	0.11
640.332	0.11
640.665	0.1
640.998	0.11
641.331	0.11
641.663	0.1
641.996	0.1
642.328	0.11
642.661	0.11
642.993	0.11
643.326	0.11
643.658	0.1
643.99	0.1
644.323	0.1
644.655	0.1
644.987	0.11
645.319	0.11
645.651	0.11
645.983	0.1
646.315	0.11
646.647	0.11
646.979	0.12
647.31	0.12
647.642	0.11
647.974	0.11
648.305	0.12
648.637	0.12
648.968	0.12
649.3	0.12
649.631	0.12
649.963	0.11
650.294	0.12
650.625	0.12
650.957	0.12
651.288	0.12
651.619	0.12
651.95	0.11
652.281	0.12
652.612	0.12
652.943	0.12
653.274	0.12
653.604	0.12
653.935	0.11
654.266	0.12
654.596	0.11
654.927	0.12
655.258	0.11
655.588	0.12
655.918	0.12
656.249	0.1
656.579	0.12
656.909	0.11
657.24	0.11
657.57	0.11
657.9	0.12
658.23	0.12
658.56	0.12
658.89	0.12
659.22	0.12
659.55	0.11
659.88	0.12
660.209	0.13
660.539	0.12
660.869	0.13
661.198	0.12
661.528	0.12
661.857	0.12
662.187	0.12
662.516	0.12
662.846	0.11
663.175	0.12
663.504	0.12
663.833	0.11
664.163	0.12
664.492	0.11
664.821	0.11
665.15	0.11
665.479	0.11
665.807	0.11
666.136	0.11
666.465	0.11
666.794	0.11
667.122	0.1
667.451	0.1
667.78	0.11
668.108	0.11
668.437	0.11
668.765	0.11
669.093	0.11
669.422	0.11
669.75	0.1
670.078	0.11
670.406	0.11
670.734	0.11
671.062	0.1
671.39	0.11
671.718	0.11
672.046	0.11
672.374	0.11
672.702	0.1
673.029	0.1
673.357	0.11
673.685	0.11
674.012	0.11
674.34	0.11
674.667	0.11
674.995	0.11
675.322	0.11
675.649	0.11
675.977	0.11
676.304	0.11
676.631	0.11
676.958	0.11
677.285	0.11
677.612	0.1
677.939	0.1
678.266	0.1
678.593	0.11
678.92	0.11
679.246	0.1
679.573	0.1
679.9	0.1
680.226	0.1
680.553	0.1
680.879	0.1
681.206	0.1
681.532	0.1
681.858	0.1
682.184	0.1
682.511	0.09
682.837	0.09
683.163	0.1
683.489	0.09
683.815	0.1
684.141	0.1
684.467	0.1
684.793	0.09
685.118	0.09
685.444	0.09
685.77	0.09
686.095	0.09
686.421	0.09
686.746	0.1
687.072	0.09
687.397	0.1
687.723	0.1
688.048	0.11
688.373	0.1
688.698	0.1
689.023	0.1
689.349	0.1
689.674	0.1
689.999	0.09
690.323	0.09
690.648	0.09
690.973	0.09
691.298	0.09
691.623	0.09
691.947	0.09
692.272	0.09
692.596	0.09
692.921	0.09
693.245	0.09
693.57	0.09
693.894	0.09
694.218	0.09
694.543	0.09
694.867	0.09
695.191	0.09
695.515	0.09
695.839	0.08
696.163	0.09
696.487	0.09
696.811	0.08
697.135	0.09
697.458	0.09
697.782	0.09
698.106	0.09
698.429	0.09
698.753	0.09
699.076	0.09
699.4	0.08
699.723	0.09
700.046	0.08
700.37	0.09
700.693	0.09
701.016	0.09
701.339	0.08
701.662	0.09
701.985	0.09
702.308	0.08
702.631	0.09
702.954	0.09
703.277	0.09
703.599	0.08
703.922	0.08
704.245	0.08
704.567	0.08
704.89	0.09
705.212	0.08
705.535	0.07
705.857	0.07
706.179	0.08
706.502	0.07
706.824	0.07
707.146	0.07
707.468	0.07
707.79	0.07
708.112	0.08
708.434	0.08
708.756	0.08
709.078	0.08
709.399	0.08
709.721	0.08
710.043	0.08
710.364	0.08
710.686	0.09
711.007	0.08
711.329	0.08
711.65	0.08
711.972	0.08
712.293	0.08
712.614	0.09
712.935	0.08
713.256	0.09
713.577	0.08
713.898	0.08
714.219	0.08
714.54	0.08
714.861	0.07
715.182	0.07
715.503	0.07
715.823	0.08
716.144	0.07
716.464	0.07
716.785	0.07
717.105	0.07
717.426	0.07
717.746	0.07
718.066	0.06
718.387	0.07
718.707	0.05
719.027	0.07
719.347	0.06
719.667	0.06
719.987	0.06
720.307	0.06
720.627	0.06
720.947	0.07
721.266	0.06
721.586	0.06
721.906	0.07
722.225	0.06
722.545	0.06
722.864	0.05
723.184	0.07
723.503	0.06
723.823	0.06
724.142	0.05
724.461	0.05
724.78	0.06
725.099	0.06
725.418	0.06
725.737	0.05
726.056	0.06
726.375	0.06
726.694	0.06
727.013	0.06
727.331	0.05
727.65	0.06
727.969	0.06
728.287	0.07
728.606	0.06
728.924	0.06
729.242	0.07
729.561	0.06
729.879	0.06
730.197	0.06
730.515	0.06
730.834	0.05
731.152	0.05
731.47	0.06
731.788	0.06
732.105	0.05
732.423	0.06
732.741	0.06
733.059	0.05
733.376	0.06
733.694	0.05
734.012	0.06
734.329	0.06
734.647	0.05
734.964	0.06
735.281	0.06
735.599	0.06
735.916	0.07
736.233	0.06
736.55	0.06
736.867	0.06
737.184	0.07
737.501	0.06
737.818	0.06
738.135	0.06
738.452	0.06
738.768	0.06
739.085	0.07
739.402	0.04
739.718	0.06
740.035	0.05
740.351	0.06
740.668	0.07
740.984	0.06
741.3	0.07
741.617	0.06
741.933	0.06
742.249	0.07
742.565	0.06
742.881	0.07
743.197	0.06
743.513	0.06
743.829	0.05
744.144	0.05
744.46	0.06
744.776	0.06
745.091	0.06
745.407	0.05
745.722	0.05
746.038	0.05
746.353	0.04
746.669	0.06
746.984	0.05
747.299	0.06
747.614	0.07
747.93	0.06
748.245	0.05
748.56	0.06
748.875	0.05
749.189	0.06
749.504	0.06
749.819	0.06
750.134	0.06
750.448	0.06
750.763	0.06
751.078	0.05
751.392	0.06
751.707	0.06
752.021	0.06
752.335	0.07
752.65	0.07
752.964	0.06
753.278	0.06
753.592	0.06
753.906	0.05
754.22	0.06
754.534	0.06
754.848	0.06
755.162	0.06
755.476	0.06
755.789	0.06
756.103	0.06
756.417	0.07
756.73	0.06
757.044	0.06
757.357	0.06
757.671	0.06
757.984	0.06
758.297	0.06
758.61	0.06
758.924	0.06
759.237	0.06
759.55	0.06
759.863	0.06
760.176	0.07
760.488	0.06
760.801	0.05
761.114	0.06
761.427	0.06
761.739	0.06
762.052	0.06
762.365	0.06
762.677	0.06
762.99	0.05
763.302	0.05
763.614	0.06
763.926	0.06
764.239	0.05
764.551	0.05
764.863	0.06
765.175	0.06
765.487	0.06
765.799	0.05
766.111	0.05
766.423	0.05
766.734	0.05
767.046	0.05
767.358	0.06
767.669	0.05
767.981	0.05
768.292	0.06
768.604	0.05
768.915	0.05
769.226	0.05
769.537	0.04
769.849	0.06
770.16	0.05
770.471	0.05
770.782	0.04
771.093	0.05
771.404	0.03
771.715	0.05
772.025	0.04
772.336	0.04
772.647	0.04
772.957	0.04
773.268	0.05
773.578	0.04
773.889	0.05
774.199	0.05
774.51	0.04
774.82	0.04
775.13	0.05
775.44	0.05
775.75	0.05
776.06	0.04
776.37	0.05
776.68	0.05
776.99	0.06
777.3	0.04
777.61	0.05
777.92	0.05
778.229	0.04
778.539	0.05
778.848	0.05
779.158	0.06
779.467	0.06
779.777	0.05
780.086	0.05
780.395	0.04
780.704	0.05
781.013	0.04
781.323	0.04
781.632	0.04
781.941	0.04
782.249	0.05
782.558	0.04
782.867	0.05
783.176	0.04
783.485	0.04
783.793	0.05
784.102	0.04
784.41	0.04
784.719	0.04
785.027	0.04
785.335	0.04
785.644	0.04
785.952	0.04
786.26	0.04
786.568	0.04
786.876	0.04
787.184	0.05
787.492	0.04
787.8	0.03
788.108	0.04
788.416	0.05
788.723	0.04
789.031	0.04
789.338	0.04
789.646	0.04
789.953	0.05
790.261	0.05
790.568	0.04
790.876	0.04
791.183	0.04
791.49	0.03
791.797	0.04
792.104	0.03
792.411	0.04
792.718	0.04
793.025	0.05
793.332	0.05
793.639	0.05
793.945	0.05
794.252	0.05
794.559	0.04
794.865	0.05
795.172	0.05
795.478	0.05
795.784	0.05
796.091	0.06
796.397	0.05
796.703	0.05
797.009	0.06
797.315	0.05
797.622	0.05
797.927	0.06
798.233	0.05
798.539	0.06
798.845	0.06
799.151	0.05
799.456	0.05
799.762	0.05
800.068	0.05
800.373	0.06
800.679	0.05
800.984	0.04
801.289	0.04
801.595	0.04
801.9	0.05
802.205	0.04
802.51	0.05
802.815	0.05
803.12	0.05
803.425	0.04
803.73	0.04
804.035	0.05
804.339	0.04
804.644	0.04
804.949	0.05
805.253	0.05
805.558	0.04
805.862	0.05
806.167	0.05
806.471	0.04
806.775	0.05
807.08	0.05
807.384	0.05
807.688	0.05
807.992	0.05
808.296	0.05
808.6	0.05
808.904	0.05
809.207	0.05
809.511	0.05
809.815	0.06
810.119	0.05
810.422	0.06
810.726	0.06
811.029	0.06
811.332	0.06
811.636	0.06
811.939	0.05
812.242	0.06
812.546	0.06
812.849	0.05
813.152	0.06
813.455	0.06
813.758	0.06
814.06	0.05
814.363	0.06
814.666	0.05
814.969	0.05
815.271	0.05
815.574	0.04
815.877	0.05
816.179	0.05
816.481	0.05
816.784	0.05
817.086	0.04
817.388	0.04
817.69	0.04
817.993	0.04
818.295	0.04
818.597	0.05
818.899	0.04
819.2	0.03
819.502	0.03
819.804	0.04
820.106	0.04
820.407	0.03
820.709	0.04
821.01	0.03
821.312	0.03
821.613	0.03
821.915	0.04
822.216	0.03
822.517	0.04
822.818	0.03
823.119	0.03
823.42	0.04
823.721	0.03
824.022	0.03
824.323	0.04
824.624	0.03
824.925	0.04
825.226	0.04
825.526	0.03
825.827	0.03
826.127	0.04
826.428	0.04
826.728	0.04
827.028	0.04
827.329	0.03
827.629	0.03
827.929	0.04
828.229	0.04
828.529	0.04
828.829	0.03
829.129	0.04
829.429	0.03
829.729	0.03
830.029	0.02
830.328	0.03
830.628	0.03
830.927	0.02
831.227	0.02
831.526	0.02
831.826	0.02
832.125	0.03
832.424	0.02
832.724	0.02
833.023	0.03
833.322	0.03
833.621	0.03
833.92	0.01
834.219	0.02
834.518	0.02
834.816	0.01
835.115	0.03
835.414	0.01
835.712	0.02
836.011	0.01
836.309	0.02
836.608	0.01
836.906	0.01
837.205	0.01
837.503	0.01
837.801	0
838.099	0.01
838.397	-0
838.695	0
838.993	0.01
839.291	-0.01
839.589	-0
839.887	-0
840.184	-0
840.482	-0.01
840.78	-0
841.077	-0
841.375	-0.01
841.672	-0.01
841.969	-0.02
842.267	-0.02
842.564	-0.01
842.861	-0.01
843.158	-0.02
843.455	-0.03
843.752	-0.03
844.049	-0.03
844.346	-0.03
844.643	-0.03
844.94	-0.03
845.236	-0.02
845.533	-0.03
845.83	-0.04
846.126	-0.04
846.423	-0.04
846.719	-0.04
847.015	-0.05
847.312	-0.05
847.608	-0.06
847.904	-0.05
848.2	-0.05
848.496	-0.05
848.792	-0.05
849.088	-0.04
849.384	-0.06
849.68	-0.06
849.975	-0.05
850.271	-0.06
850.567	-0.07
850.862	-0.06
851.158	-0.06
851.453	-0.06
851.748	-0.08
852.044	-0.07
852.339	-0.06
852.634	-0.08
852.929	-0.06
853.224	-0.07
853.519	-0.07
853.814	-0.07
854.109	-0.07
854.404	-0.08
854.699	-0.07
854.994	-0.07
855.288	-0.07
855.583	-0.07
855.877	-0.07
856.172	-0.07
856.466	-0.08
856.76	-0.07
857.055	-0.08
857.349	-0.08
857.643	-0.1
857.937	-0.09
858.231	-0.1
858.525	-0.1
858.819	-0.1
859.113	-0.11
859.407	-0.1
859.701	-0.11
859.994	-0.11
860.288	-0.1
860.581	-0.11
860.875	-0.1
861.168	-0.11
861.462	-0.12
861.755	-0.11
862.048	-0.12
862.341	-0.11
862.634	-0.11
862.928	-0.11
863.221	-0.11
863.513	-0.12
863.806	-0.12
864.099	-0.11
864.392	-0.12
864.685	-0.11
864.977	-0.12
865.27	-0.12
865.562	-0.12
865.855	-0.12
866.147	-0.13
866.44	-0.12
866.732	-0.13
867.024	-0.13
867.316	-0.13
867.608	-0.13
867.9	-0.14
868.192	-0.14
868.484	-0.14
868.776	-0.15
869.068	-0.15
869.359	-0.14
869.651	-0.15
869.943	-0.16
870.234	-0.15
870.526	-0.16
870.817	-0.16
871.108	-0.14
871.4	-0.15
871.691	-0.16
871.982	-0.17
872.273	-0.17
872.564	-0.16
872.855	-0.17
873.146	-0.17
873.437	-0.17
873.728	-0.18
874.019	-0.17
874.309	-0.18
874.6	-0.17
874.89	-0.17
875.181	-0.18
875.471	-0.17
875.762	-0.17
876.052	-0.15
876.342	-0.16
876.632	-0.17
876.922	-0.18
877.213	-0.18
877.503	-0.17
877.792	-0.17
878.082	-0.18
878.372	-0.17
878.662	-0.18
878.952	-0.18
879.241	-0.17
879.531	-0.17
879.82	-0.17
880.11	-0.18
880.399	-0.17
880.688	-0.17
880.978	-0.17
881.267	-0.17
