Data from 12-12-AQDScycling_Absorbance__185__00185.txt Node

Date: Tue Dec 12 11:42:59 EST 2023
User: kyuminlee
Spectrometer: FLMS00943
Trigger mode: 0
Integration Time (sec): 1.000000E-1
Scans to average: 1
Electric dark correction enabled: true
Nonlinearity correction enabled: false
Boxcar width: 0
XAxis mode: Wavelengths
Number of Pixels in Spectrum: 2048
>>>>>Begin Spectral Data<<<<<
179.651	-0
180.037	-0
180.424	-0
180.81	0.07
181.197	-0.02
181.583	-0
181.97	-0.24
182.356	-0.31
182.743	-1.3
183.129	0.57
183.515	-0
183.901	-2.46
184.288	-0
184.674	-0
185.06	-0.84
185.446	-0
185.832	-0
186.218	-0.02
186.604	0.1
186.99	-0
187.376	-0
187.762	-0.23
188.148	0.08
188.534	0
188.92	0.02
189.305	0.01
189.691	0.24
190.077	0.22
190.463	0.02
190.848	0.01
191.234	0.21
191.619	0.07
192.005	0.09
192.391	0.2
192.776	0.16
193.161	0.11
193.547	0.1
193.932	-0.02
194.318	0.06
194.703	0.06
195.088	0.16
195.473	0.2
195.859	0.1
196.244	0.27
196.629	0.08
197.014	0.05
197.399	0.13
197.784	0.11
198.169	0.17
198.554	0.41
198.939	0.1
199.324	0.08
199.709	0.12
200.094	0.1
200.478	0.1
200.863	0.18
201.248	0.15
201.633	0.1
202.017	0.19
202.402	0.23
202.787	0.14
203.171	0.15
203.556	0.15
203.94	0.15
204.325	0.19
204.709	0.16
205.093	0.16
205.478	0.14
205.862	0.26
206.246	0.08
206.631	0.01
207.015	0.12
207.399	0.13
207.783	0.28
208.167	0.24
208.551	0.23
208.935	0.13
209.319	0.26
209.703	0.15
210.087	0.25
210.471	0.1
210.855	0.04
211.239	0.21
211.623	0.35
212.007	0.27
212.39	0.35
212.774	0.17
213.158	0
213.541	0.33
213.925	0.3
214.309	0.31
214.692	0.16
215.076	0.24
215.459	0.13
215.842	0.08
216.226	0.23
216.609	0.43
216.993	0.23
217.376	0.38
217.759	0.16
218.142	0.33
218.525	0.44
218.909	0.35
219.292	0.38
219.675	0.44
220.058	0.46
220.441	0.41
220.824	0.46
221.207	0.62
221.59	0.49
221.973	0.54
222.355	0.53
222.738	0.7
223.121	0.55
223.504	0.68
223.886	0.62
224.269	0.67
224.652	0.72
225.034	0.72
225.417	0.7
225.799	0.75
226.182	0.82
226.564	0.84
226.947	0.83
227.329	0.75
227.711	0.93
228.094	1.08
228.476	0.84
228.858	0.92
229.24	0.87
229.623	0.86
230.005	0.79
230.387	0.79
230.769	0.77
231.151	0.97
231.533	1.01
231.915	0.95
232.297	1.06
232.679	0.93
233.061	0.91
233.442	0.99
233.824	1.06
234.206	1.2
234.588	1.04
234.969	1.11
235.351	0.95
235.733	1.13
236.114	1.24
236.496	1.09
236.877	0.97
237.259	1
237.64	1.01
238.022	0.89
238.403	0.98
238.784	1.1
239.165	1
239.547	1.02
239.928	1.22
240.309	1.07
240.69	1.09
241.071	1.07
241.452	1.08
241.834	1.04
242.215	1.11
242.595	1.1
242.976	1.14
243.357	1.09
243.738	1.09
244.119	1.19
244.5	1
244.881	1.26
245.261	1.2
245.642	1.1
246.023	1.1
246.403	1.2
246.784	1.38
247.164	1.2
247.545	1.24
247.925	1.17
248.306	1.24
248.686	1.42
249.067	1.34
249.447	1.39
249.827	1.51
250.207	1.38
250.588	1.3
250.968	1.58
251.348	1.22
251.728	1.46
252.108	1.36
252.488	1.26
252.868	1.41
253.248	1.27
253.628	1.43
254.008	1.46
254.388	1.46
254.768	1.39
255.147	1.42
255.527	1.4
255.907	1.27
256.287	1.28
256.666	1.38
257.046	1.46
257.425	1.68
257.805	1.38
258.184	1.36
258.564	1.4
258.943	1.42
259.323	1.51
259.702	1.39
260.081	1.54
260.461	1.5
260.84	1.48
261.219	1.6
261.598	1.43
261.977	1.51
262.356	1.51
262.736	1.71
263.115	1.59
263.494	1.51
263.873	1.51
264.251	1.43
264.63	1.47
265.009	1.49
265.388	1.45
265.767	1.33
266.145	1.37
266.524	1.42
266.903	1.35
267.281	1.41
267.66	1.48
268.039	1.39
268.417	1.44
268.796	1.41
269.174	1.52
269.552	1.37
269.931	1.43
270.309	1.34
270.687	1.51
271.066	1.74
271.444	1.34
271.822	1.5
272.2	1.48
272.578	1.38
272.956	1.41
273.334	1.36
273.712	1.4
274.09	1.38
274.468	1.34
274.846	1.45
275.224	1.41
275.602	1.43
275.98	1.43
276.357	1.4
276.735	1.42
277.113	1.3
277.49	1.32
277.868	1.27
278.246	1.36
278.623	1.37
279.001	1.3
279.378	1.41
279.756	1.37
280.133	1.6
280.51	1.32
280.888	1.33
281.265	1.34
281.642	1.44
282.019	1.53
282.396	1.5
282.773	1.41
283.151	1.58
283.528	1.54
283.905	1.42
284.282	1.46
284.659	1.43
285.035	1.27
285.412	1.44
285.789	1.49
286.166	1.43
286.543	1.44
286.919	1.49
287.296	1.29
287.673	1.59
288.049	1.56
288.426	1.57
288.802	1.43
289.179	1.54
289.555	1.57
289.932	1.45
290.308	1.24
290.684	1.38
291.061	1.34
291.437	1.61
291.813	1.27
292.189	1.34
292.565	1.27
292.942	1.31
293.318	1.38
293.694	1.49
294.07	1.27
294.446	1.4
294.822	1.63
295.197	1.46
295.573	1.49
295.949	1.43
296.325	1.44
296.701	1.51
297.076	1.58
297.452	1.53
297.828	1.41
298.203	1.61
298.579	1.34
298.954	1.46
299.33	1.41
299.705	1.52
300.081	1.44
300.456	1.43
300.831	1.38
301.206	1.41
301.582	1.45
301.957	1.39
302.332	1.52
302.707	1.44
303.082	1.29
303.457	1.44
303.832	1.5
304.207	1.36
304.582	1.51
304.957	1.37
305.332	1.46
305.707	1.36
306.082	1.43
306.456	1.51
306.831	1.35
307.206	1.38
307.58	1.48
307.955	1.48
308.33	1.36
308.704	1.35
309.079	1.41
309.453	1.59
309.828	1.36
310.202	1.3
310.576	1.34
310.951	1.39
311.325	1.35
311.699	1.39
312.073	1.36
312.447	1.35
312.821	1.31
313.196	1.44
313.57	1.4
313.944	1.36
314.317	1.29
314.691	1.42
315.065	1.37
315.439	1.33
315.813	1.37
316.187	1.36
316.56	1.38
316.934	1.39
317.308	1.29
317.681	1.43
318.055	1.33
318.428	1.39
318.802	1.57
319.175	1.38
319.549	1.42
319.922	1.33
320.295	1.35
320.669	1.57
321.042	1.4
321.415	1.61
321.788	1.46
322.162	1.51
322.535	1.52
322.908	1.47
323.281	1.41
323.654	1.53
324.027	1.43
324.4	1.5
324.773	1.44
325.145	1.51
325.518	1.33
325.891	1.38
326.264	1.54
326.636	1.42
327.009	1.43
327.382	1.34
327.754	1.39
328.127	1.31
328.499	1.54
328.872	1.59
329.244	1.46
329.616	1.5
329.989	1.42
330.361	1.51
330.733	1.4
331.106	1.46
331.478	1.45
331.85	1.44
332.222	1.34
332.594	1.4
332.966	1.45
333.338	1.49
333.71	1.64
334.082	1.61
334.454	1.39
334.826	1.4
335.197	1.42
335.569	1.42
335.941	1.43
336.312	1.46
336.684	1.37
337.056	1.41
337.427	1.47
337.799	1.49
338.17	1.41
338.542	1.45
338.913	1.54
339.284	1.64
339.656	1.51
340.027	1.47
340.398	1.43
340.769	1.4
341.141	1.57
341.512	1.58
341.883	1.62
342.254	1.39
342.625	1.5
342.996	1.39
343.367	1.6
343.738	1.41
344.108	1.41
344.479	1.49
344.85	1.34
345.221	1.55
345.591	1.31
345.962	1.37
346.333	1.33
346.703	1.3
347.074	1.24
347.444	1.28
347.815	1.44
348.185	1.33
348.556	1.32
348.926	1.37
349.296	1.36
349.666	1.39
350.037	1.36
350.407	1.3
350.777	1.25
351.147	1.36
351.517	1.36
351.887	1.42
352.257	1.48
352.627	1.28
352.997	1.35
353.367	1.44
353.737	1.44
354.106	1.36
354.476	1.32
354.846	1.38
355.216	1.36
355.585	1.43
355.955	1.3
356.324	1.37
356.694	1.35
357.063	1.38
357.433	1.33
357.802	1.41
358.171	1.38
358.541	1.35
358.91	1.31
359.279	1.35
359.648	1.29
360.017	1.32
360.387	1.34
360.756	1.33
361.125	1.42
361.494	1.38
361.863	1.32
362.231	1.26
362.6	1.33
362.969	1.34
363.338	1.26
363.707	1.37
364.075	1.38
364.444	1.23
364.813	1.34
365.181	1.26
365.55	1.28
365.918	1.36
366.287	1.3
366.655	1.36
367.024	1.37
367.392	1.32
367.76	1.29
368.128	1.32
368.497	1.33
368.865	1.35
369.233	1.38
369.601	1.25
369.969	1.42
370.337	1.33
370.705	1.37
371.073	1.33
371.441	1.32
371.809	1.34
372.177	1.29
372.544	1.33
372.912	1.35
373.28	1.44
373.647	1.38
374.015	1.34
374.383	1.52
374.75	1.39
375.118	1.3
375.485	1.37
375.853	1.48
376.22	1.32
376.587	1.4
376.955	1.5
377.322	1.4
377.689	1.33
378.056	1.34
378.423	1.43
378.79	1.39
379.157	1.39
379.524	1.49
379.891	1.36
380.258	1.4
380.625	1.54
380.992	1.43
381.359	1.48
381.726	1.6
382.092	1.46
382.459	1.5
382.826	1.44
383.192	1.48
383.559	1.44
383.925	1.56
384.292	1.39
384.658	1.5
385.025	1.42
385.391	1.67
385.757	1.51
386.123	1.61
386.49	1.53
386.856	1.54
387.222	1.53
387.588	1.42
387.954	1.62
388.32	1.55
388.686	1.55
389.052	1.43
389.418	1.55
389.784	1.51
390.15	1.62
390.515	1.33
390.881	1.67
391.247	1.44
391.613	1.7
391.978	1.42
392.344	1.59
392.709	1.52
393.075	1.43
393.44	1.58
393.806	1.51
394.171	1.48
394.536	1.47
394.902	1.51
395.267	1.53
395.632	1.41
395.997	1.42
396.362	1.47
396.727	1.57
397.092	1.44
397.457	1.43
397.822	1.5
398.187	1.44
398.552	1.4
398.917	1.41
399.282	1.35
399.646	1.4
400.011	1.57
400.376	1.36
400.74	1.41
401.105	1.45
401.47	1.53
401.834	1.4
402.199	1.41
402.563	1.39
402.927	1.33
403.292	1.46
403.656	1.46
404.02	1.45
404.384	1.39
404.749	1.44
405.113	1.51
405.477	1.47
405.841	1.38
406.205	1.45
406.569	1.34
406.933	1.35
407.296	1.34
407.66	1.35
408.024	1.35
408.388	1.35
408.752	1.32
409.115	1.36
409.479	1.4
409.842	1.3
410.206	1.3
410.569	1.34
410.933	1.27
411.296	1.26
411.66	1.35
412.023	1.27
412.386	1.29
412.749	1.23
413.113	1.28
413.476	1.14
413.839	1.22
414.202	1.26
414.565	1.23
414.928	1.23
415.291	1.17
415.654	1.15
416.017	1.2
416.38	1.19
416.742	1.16
417.105	1.19
417.468	1.14
417.83	1.19
418.193	1.2
418.556	1.17
418.918	1.14
419.281	1.11
419.643	1.27
420.005	1.2
420.368	1.2
420.73	1.15
421.092	1.24
421.455	1.17
421.817	1.11
422.179	1.15
422.541	1.19
422.903	1.21
423.265	1.22
423.627	1.2
423.989	1.15
424.351	1.14
424.713	1.12
425.075	1.12
425.436	1.12
425.798	1.13
426.16	1.16
426.521	1.17
426.883	1.17
427.245	1.11
427.606	1.11
427.967	1.11
428.329	1.12
428.69	1.13
429.052	1.12
429.413	1.11
429.774	1.13
430.135	1.17
430.497	1.15
430.858	1.08
431.219	1.09
431.58	1.05
431.941	1.04
432.302	1.08
432.663	1.09
433.024	1.14
433.384	1.06
433.745	1.06
434.106	1.09
434.467	1.07
434.827	1.1
435.188	1.06
435.548	1.11
435.909	1.05
436.269	1.09
436.63	1.04
436.99	1.03
437.351	1
437.711	1.05
438.071	1.02
438.431	1
438.792	1.04
439.152	1.01
439.512	0.98
439.872	1.01
440.232	1.02
440.592	1.01
440.952	0.96
441.312	0.98
441.671	0.99
442.031	0.98
442.391	0.98
442.751	0.95
443.11	0.96
443.47	0.93
443.83	0.91
444.189	0.9
444.549	0.94
444.908	0.9
445.267	0.93
445.627	0.88
445.986	0.89
446.345	0.87
446.705	0.9
447.064	0.9
447.423	0.88
447.782	0.88
448.141	0.88
448.5	0.86
448.859	0.87
449.218	0.85
449.577	0.85
449.936	0.87
450.295	0.87
450.653	0.84
451.012	0.84
451.371	0.83
451.729	0.82
452.088	0.85
452.447	0.82
452.805	0.81
453.163	0.82
453.522	0.81
453.88	0.81
454.239	0.8
454.597	0.78
454.955	0.78
455.313	0.76
455.671	0.78
456.029	0.76
456.388	0.73
456.746	0.74
457.104	0.73
457.461	0.72
457.819	0.72
458.177	0.71
458.535	0.7
458.893	0.7
459.25	0.68
459.608	0.68
459.966	0.66
460.323	0.67
460.681	0.64
461.038	0.64
461.396	0.63
461.753	0.62
462.111	0.63
462.468	0.62
462.825	0.6
463.182	0.6
463.54	0.6
463.897	0.58
464.254	0.59
464.611	0.58
464.968	0.57
465.325	0.57
465.682	0.55
466.039	0.55
466.395	0.54
466.752	0.53
467.109	0.53
467.466	0.52
467.822	0.52
468.179	0.51
468.535	0.51
468.892	0.5
469.248	0.48
469.605	0.48
469.961	0.47
470.318	0.5
470.674	0.48
471.03	0.46
471.386	0.47
471.743	0.45
472.099	0.46
472.455	0.44
472.811	0.43
473.167	0.43
473.523	0.41
473.879	0.42
474.235	0.41
474.59	0.4
474.946	0.39
475.302	0.4
475.657	0.39
476.013	0.38
476.369	0.37
476.724	0.38
477.08	0.38
477.435	0.36
477.791	0.36
478.146	0.36
478.501	0.35
478.857	0.35
479.212	0.35
479.567	0.34
479.922	0.33
480.277	0.33
480.632	0.32
480.987	0.33
481.342	0.32
481.697	0.31
482.052	0.31
482.407	0.3
482.762	0.3
483.116	0.3
483.471	0.3
483.826	0.28
484.18	0.28
484.535	0.28
484.89	0.27
485.244	0.27
485.598	0.27
485.953	0.26
486.307	0.27
486.661	0.27
487.016	0.26
487.37	0.26
487.724	0.26
488.078	0.25
488.432	0.25
488.786	0.25
489.14	0.25
489.494	0.24
489.848	0.24
490.202	0.23
490.556	0.24
490.91	0.23
491.263	0.23
491.617	0.23
491.971	0.23
492.324	0.22
492.678	0.22
493.031	0.22
493.385	0.21
493.738	0.22
494.091	0.21
494.445	0.21
494.798	0.21
495.151	0.21
495.504	0.2
495.857	0.2
496.21	0.21
496.564	0.2
496.916	0.21
497.269	0.2
497.622	0.2
497.975	0.2
498.328	0.2
498.681	0.2
499.033	0.19
499.386	0.2
499.739	0.19
500.091	0.19
500.444	0.19
500.796	0.19
501.149	0.19
501.501	0.18
501.854	0.18
502.206	0.18
502.558	0.19
502.91	0.19
503.263	0.18
503.615	0.18
503.967	0.18
504.319	0.19
504.671	0.18
505.023	0.19
505.375	0.18
505.726	0.17
506.078	0.18
506.43	0.18
506.782	0.17
507.133	0.17
507.485	0.17
507.837	0.18
508.188	0.17
508.54	0.18
508.891	0.17
509.243	0.17
509.594	0.18
509.945	0.17
510.296	0.17
510.648	0.17
510.999	0.17
511.35	0.17
511.701	0.17
512.052	0.17
512.403	0.18
512.754	0.17
513.105	0.16
513.456	0.16
513.807	0.16
514.157	0.17
514.508	0.17
514.859	0.16
515.209	0.16
515.56	0.16
515.91	0.16
516.261	0.16
516.611	0.15
516.962	0.16
517.312	0.16
517.662	0.16
518.013	0.16
518.363	0.16
518.713	0.15
519.063	0.16
519.413	0.16
519.763	0.16
520.113	0.16
520.463	0.17
520.813	0.16
521.163	0.17
521.512	0.16
521.862	0.16
522.212	0.16
522.562	0.16
522.911	0.16
523.261	0.16
523.61	0.16
523.96	0.16
524.309	0.16
524.658	0.17
525.008	0.16
525.357	0.16
525.706	0.16
526.056	0.16
526.405	0.16
526.754	0.17
527.103	0.16
527.452	0.17
527.801	0.17
528.15	0.17
528.499	0.16
528.847	0.17
529.196	0.17
529.545	0.17
529.893	0.17
530.242	0.17
530.591	0.17
530.939	0.18
531.288	0.17
531.636	0.17
531.985	0.18
532.333	0.17
532.681	0.17
533.029	0.18
533.378	0.18
533.726	0.18
534.074	0.18
534.422	0.17
534.77	0.17
535.118	0.17
535.466	0.17
535.814	0.17
536.162	0.18
536.509	0.17
536.857	0.17
537.205	0.18
537.552	0.18
537.9	0.17
538.248	0.17
538.595	0.17
538.943	0.18
539.29	0.17
539.637	0.17
539.985	0.17
540.332	0.17
540.679	0.17
541.026	0.17
541.373	0.17
541.721	0.16
542.068	0.16
542.415	0.17
542.762	0.17
543.108	0.16
543.455	0.16
543.802	0.16
544.149	0.16
544.496	0.17
544.842	0.16
545.189	0.16
545.535	0.17
545.882	0.17
546.228	0.16
546.575	0.16
546.921	0.16
547.267	0.16
547.614	0.16
547.96	0.17
548.306	0.16
548.652	0.16
548.998	0.18
549.344	0.17
549.69	0.17
550.036	0.17
550.382	0.17
550.728	0.17
551.074	0.17
551.42	0.17
551.765	0.17
552.111	0.18
552.457	0.18
552.802	0.17
553.148	0.17
553.493	0.17
553.839	0.18
554.184	0.18
554.529	0.17
554.875	0.17
555.22	0.17
555.565	0.17
555.91	0.17
556.255	0.19
556.6	0.18
556.945	0.17
557.29	0.17
557.635	0.18
557.98	0.18
558.325	0.19
558.67	0.17
559.014	0.18
559.359	0.18
559.704	0.18
560.048	0.17
560.393	0.17
560.737	0.16
561.082	0.18
561.426	0.17
561.77	0.17
562.115	0.16
562.459	0.17
562.803	0.17
563.147	0.17
563.491	0.17
563.835	0.17
564.179	0.17
564.523	0.17
564.867	0.16
565.211	0.17
565.555	0.17
565.899	0.18
566.242	0.17
566.586	0.16
566.93	0.17
567.273	0.18
567.617	0.17
567.96	0.18
568.304	0.18
568.647	0.17
568.99	0.18
569.334	0.18
569.677	0.18
570.02	0.18
570.363	0.18
570.706	0.17
571.049	0.18
571.392	0.17
571.735	0.17
572.078	0.17
572.421	0.18
572.764	0.17
573.106	0.17
573.449	0.17
573.792	0.17
574.134	0.18
574.477	0.18
574.819	0.18
575.162	0.18
575.504	0.18
575.847	0.18
576.189	0.17
576.531	0.18
576.873	0.18
577.215	0.18
577.558	0.17
577.9	0.17
578.242	0.17
578.584	0.17
578.926	0.17
579.267	0.17
579.609	0.17
579.951	0.18
580.293	0.17
580.634	0.18
580.976	0.18
581.318	0.16
581.659	0.17
582.001	0.17
582.342	0.16
582.683	0.17
583.025	0.16
583.366	0.16
583.707	0.17
584.049	0.16
584.39	0.17
584.731	0.17
585.072	0.16
585.413	0.18
585.754	0.18
586.095	0.18
586.435	0.17
586.776	0.17
587.117	0.17
587.458	0.17
587.798	0.17
588.139	0.17
588.48	0.17
588.82	0.17
589.161	0.17
589.501	0.17
589.841	0.16
590.182	0.17
590.522	0.16
590.862	0.17
591.202	0.17
591.542	0.17
591.882	0.17
592.222	0.17
592.562	0.17
592.902	0.17
593.242	0.17
593.582	0.17
593.922	0.17
594.261	0.16
594.601	0.17
594.941	0.17
595.28	0.17
595.62	0.17
595.959	0.16
596.299	0.17
596.638	0.17
596.977	0.17
597.317	0.16
597.656	0.16
597.995	0.17
598.334	0.17
598.673	0.16
599.012	0.16
599.351	0.17
599.69	0.16
600.029	0.17
600.368	0.17
600.707	0.17
601.046	0.16
601.384	0.17
601.723	0.16
602.061	0.16
602.4	0.16
602.738	0.17
603.077	0.17
603.415	0.16
603.754	0.17
604.092	0.17
604.43	0.17
604.768	0.17
605.107	0.17
605.445	0.16
605.783	0.16
606.121	0.16
606.459	0.16
606.796	0.17
607.134	0.16
607.472	0.16
607.81	0.16
608.148	0.16
608.485	0.17
608.823	0.17
609.16	0.16
609.498	0.17
609.835	0.16
610.173	0.16
610.51	0.17
610.847	0.17
611.185	0.16
611.522	0.16
611.859	0.17
612.196	0.17
612.533	0.17
612.87	0.17
613.207	0.18
613.544	0.17
613.881	0.17
614.217	0.17
614.554	0.16
614.891	0.17
615.228	0.16
615.564	0.18
615.901	0.17
616.237	0.17
616.574	0.17
616.91	0.18
617.246	0.17
617.583	0.18
617.919	0.18
618.255	0.18
618.591	0.17
618.927	0.18
619.263	0.18
619.599	0.18
619.935	0.18
620.271	0.17
620.607	0.18
620.943	0.17
621.279	0.17
621.614	0.17
621.95	0.17
622.286	0.16
622.621	0.17
622.957	0.17
623.292	0.16
623.627	0.16
623.963	0.16
624.298	0.16
624.633	0.16
624.968	0.16
625.304	0.17
625.639	0.16
625.974	0.16
626.309	0.16
626.644	0.16
626.979	0.16
627.313	0.16
627.648	0.16
627.983	0.16
628.318	0.15
628.652	0.15
628.987	0.15
629.321	0.17
629.656	0.15
629.99	0.16
630.325	0.16
630.659	0.16
630.993	0.15
631.327	0.16
631.662	0.14
631.996	0.15
632.33	0.15
632.664	0.16
632.998	0.15
633.332	0.15
633.666	0.15
633.999	0.15
634.333	0.15
634.667	0.15
635.001	0.14
635.334	0.14
635.668	0.14
636.001	0.15
636.335	0.14
636.668	0.15
637.001	0.13
637.335	0.14
637.668	0.14
638.001	0.14
638.334	0.15
638.668	0.14
639.001	0.14
639.334	0.14
639.667	0.14
639.999	0.14
640.332	0.14
640.665	0.13
640.998	0.14
641.331	0.14
641.663	0.13
641.996	0.13
642.328	0.14
642.661	0.14
642.993	0.14
643.326	0.15
643.658	0.13
643.99	0.14
644.323	0.13
644.655	0.14
644.987	0.14
645.319	0.14
645.651	0.15
645.983	0.14
646.315	0.13
646.647	0.14
646.979	0.15
647.31	0.15
647.642	0.14
647.974	0.14
648.305	0.15
648.637	0.15
648.968	0.15
649.3	0.15
649.631	0.14
649.963	0.15
650.294	0.15
650.625	0.14
650.957	0.15
651.288	0.15
651.619	0.15
651.95	0.15
652.281	0.14
652.612	0.14
652.943	0.15
653.274	0.15
653.604	0.14
653.935	0.14
654.266	0.15
654.596	0.14
654.927	0.14
655.258	0.14
655.588	0.14
655.918	0.14
656.249	0.13
656.579	0.14
656.909	0.14
657.24	0.13
657.57	0.14
657.9	0.14
658.23	0.14
658.56	0.14
658.89	0.14
659.22	0.13
659.55	0.15
659.88	0.14
660.209	0.14
660.539	0.16
660.869	0.15
661.198	0.14
661.528	0.14
661.857	0.14
662.187	0.14
662.516	0.14
662.846	0.14
663.175	0.14
663.504	0.14
663.833	0.14
664.163	0.14
664.492	0.14
664.821	0.13
665.15	0.14
665.479	0.14
665.807	0.13
666.136	0.13
666.465	0.13
666.794	0.13
667.122	0.13
667.451	0.14
667.78	0.13
668.108	0.14
668.437	0.13
668.765	0.13
669.093	0.13
669.422	0.14
669.75	0.14
670.078	0.13
670.406	0.13
670.734	0.13
671.062	0.13
671.39	0.13
671.718	0.14
672.046	0.13
672.374	0.13
672.702	0.13
673.029	0.13
673.357	0.13
673.685	0.14
674.012	0.13
674.34	0.13
674.667	0.13
674.995	0.13
675.322	0.13
675.649	0.13
675.977	0.13
676.304	0.13
676.631	0.12
676.958	0.12
677.285	0.11
677.612	0.12
677.939	0.12
678.266	0.12
678.593	0.11
678.92	0.12
679.246	0.11
679.573	0.12
679.9	0.11
680.226	0.11
680.553	0.11
680.879	0.12
681.206	0.12
681.532	0.11
681.858	0.12
682.184	0.11
682.511	0.11
682.837	0.11
683.163	0.11
683.489	0.11
683.815	0.11
684.141	0.11
684.467	0.12
684.793	0.11
685.118	0.11
685.444	0.11
685.77	0.11
686.095	0.11
686.421	0.11
686.746	0.12
687.072	0.11
687.397	0.11
687.723	0.13
688.048	0.12
688.373	0.11
688.698	0.11
689.023	0.12
689.349	0.11
689.674	0.11
689.999	0.11
690.323	0.1
690.648	0.1
690.973	0.1
691.298	0.11
691.623	0.1
691.947	0.1
692.272	0.1
692.596	0.1
692.921	0.1
693.245	0.1
693.57	0.1
693.894	0.11
694.218	0.1
694.543	0.09
694.867	0.1
695.191	0.09
695.515	0.1
695.839	0.09
696.163	0.1
696.487	0.1
696.811	0.1
697.135	0.1
697.458	0.1
697.782	0.1
698.106	0.1
698.429	0.1
698.753	0.1
699.076	0.1
699.4	0.1
699.723	0.09
700.046	0.1
700.37	0.1
700.693	0.1
701.016	0.1
701.339	0.1
701.662	0.11
701.985	0.1
702.308	0.1
702.631	0.1
702.954	0.1
703.277	0.1
703.599	0.1
703.922	0.09
704.245	0.1
704.567	0.09
704.89	0.09
705.212	0.1
705.535	0.09
705.857	0.1
706.179	0.09
706.502	0.09
706.824	0.09
707.146	0.09
707.468	0.09
707.79	0.1
708.112	0.09
708.434	0.1
708.756	0.09
709.078	0.09
709.399	0.09
709.721	0.09
710.043	0.1
710.364	0.09
710.686	0.1
711.007	0.09
711.329	0.09
711.65	0.09
711.972	0.09
712.293	0.09
712.614	0.09
712.935	0.09
713.256	0.1
713.577	0.09
713.898	0.09
714.219	0.09
714.54	0.09
714.861	0.09
715.182	0.09
715.503	0.08
715.823	0.08
716.144	0.08
716.464	0.08
716.785	0.08
717.105	0.08
717.426	0.09
717.746	0.08
718.066	0.08
718.387	0.08
718.707	0.07
719.027	0.08
719.347	0.07
719.667	0.08
719.987	0.07
720.307	0.07
720.627	0.07
720.947	0.08
721.266	0.07
721.586	0.07
721.906	0.07
722.225	0.06
722.545	0.06
722.864	0.06
723.184	0.07
723.503	0.06
723.823	0.07
724.142	0.06
724.461	0.07
724.78	0.07
725.099	0.07
725.418	0.07
725.737	0.06
726.056	0.07
726.375	0.07
726.694	0.07
727.013	0.08
727.331	0.06
727.65	0.07
727.969	0.07
728.287	0.07
728.606	0.06
728.924	0.06
729.242	0.07
729.561	0.06
729.879	0.06
730.197	0.06
730.515	0.06
730.834	0.07
731.152	0.06
731.47	0.06
731.788	0.06
732.105	0.05
732.423	0.06
732.741	0.06
733.059	0.06
733.376	0.07
733.694	0.06
734.012	0.05
734.329	0.06
734.647	0.06
734.964	0.06
735.281	0.07
735.599	0.07
735.916	0.07
736.233	0.06
736.55	0.06
736.867	0.06
737.184	0.07
737.501	0.07
737.818	0.07
738.135	0.07
738.452	0.07
738.768	0.07
739.085	0.07
739.402	0.06
739.718	0.06
740.035	0.07
740.351	0.08
740.668	0.07
740.984	0.06
741.3	0.06
741.617	0.07
741.933	0.07
742.249	0.07
742.565	0.07
742.881	0.08
743.197	0.07
743.513	0.06
743.829	0.06
744.144	0.06
744.46	0.07
744.776	0.07
745.091	0.07
745.407	0.07
745.722	0.07
746.038	0.06
746.353	0.06
746.669	0.08
746.984	0.06
747.299	0.06
747.614	0.08
747.93	0.08
748.245	0.06
748.56	0.07
748.875	0.06
749.189	0.06
749.504	0.07
749.819	0.07
750.134	0.06
750.448	0.07
750.763	0.07
751.078	0.06
751.392	0.07
751.707	0.07
752.021	0.07
752.335	0.08
752.65	0.07
752.964	0.07
753.278	0.07
753.592	0.07
753.906	0.06
754.22	0.06
754.534	0.07
754.848	0.06
755.162	0.06
755.476	0.07
755.789	0.07
756.103	0.06
756.417	0.07
756.73	0.06
757.044	0.07
757.357	0.06
757.671	0.07
757.984	0.06
758.297	0.07
758.61	0.07
758.924	0.07
759.237	0.07
759.55	0.07
759.863	0.07
760.176	0.07
760.488	0.06
760.801	0.06
761.114	0.06
761.427	0.06
761.739	0.07
762.052	0.06
762.365	0.06
762.677	0.06
762.99	0.05
763.302	0.06
763.614	0.06
763.926	0.06
764.239	0.05
764.551	0.06
764.863	0.05
765.175	0.06
765.487	0.06
765.799	0.05
766.111	0.05
766.423	0.05
766.734	0.06
767.046	0.05
767.358	0.06
767.669	0.05
767.981	0.05
768.292	0.05
768.604	0.06
768.915	0.05
769.226	0.05
769.537	0.05
769.849	0.05
770.16	0.04
770.471	0.04
770.782	0.05
771.093	0.05
771.404	0.04
771.715	0.05
772.025	0.04
772.336	0.04
772.647	0.04
772.957	0.05
773.268	0.05
773.578	0.04
773.889	0.05
774.199	0.05
774.51	0.05
774.82	0.04
775.13	0.05
775.44	0.05
775.75	0.06
776.06	0.05
776.37	0.04
776.68	0.05
776.99	0.05
777.3	0.04
777.61	0.06
777.92	0.05
778.229	0.05
778.539	0.04
778.848	0.05
779.158	0.06
779.467	0.05
779.777	0.05
780.086	0.05
780.395	0.05
780.704	0.05
781.013	0.04
781.323	0.05
781.632	0.04
781.941	0.05
782.249	0.05
782.558	0.04
782.867	0.05
783.176	0.04
783.485	0.05
783.793	0.04
784.102	0.05
784.41	0.05
784.719	0.04
785.027	0.04
785.335	0.04
785.644	0.05
785.952	0.04
786.26	0.05
786.568	0.04
786.876	0.04
787.184	0.04
787.492	0.04
787.8	0.04
788.108	0.05
788.416	0.05
788.723	0.04
789.031	0.04
789.338	0.04
789.646	0.03
789.953	0.05
790.261	0.05
790.568	0.05
790.876	0.04
791.183	0.05
791.49	0.04
791.797	0.05
792.104	0.03
792.411	0.05
792.718	0.04
793.025	0.04
793.332	0.05
793.639	0.05
793.945	0.05
794.252	0.05
794.559	0.05
794.865	0.05
795.172	0.05
795.478	0.05
795.784	0.06
796.091	0.05
796.397	0.05
796.703	0.06
797.009	0.05
797.315	0.06
797.622	0.05
797.927	0.05
798.233	0.05
798.539	0.05
798.845	0.04
799.151	0.05
799.456	0.05
799.762	0.04
800.068	0.04
800.373	0.05
800.679	0.04
800.984	0.05
801.289	0.05
801.595	0.04
801.9	0.04
802.205	0.04
802.51	0.05
802.815	0.04
803.12	0.04
803.425	0.04
803.73	0.03
804.035	0.04
804.339	0.04
804.644	0.04
804.949	0.04
805.253	0.04
805.558	0.04
805.862	0.04
806.167	0.04
806.471	0.04
806.775	0.04
807.08	0.05
807.384	0.05
807.688	0.05
807.992	0.05
808.296	0.05
808.6	0.05
808.904	0.05
809.207	0.04
809.511	0.04
809.815	0.05
810.119	0.04
810.422	0.05
810.726	0.06
811.029	0.06
811.332	0.05
811.636	0.06
811.939	0.05
812.242	0.05
812.546	0.05
812.849	0.05
813.152	0.06
813.455	0.05
813.758	0.05
814.06	0.05
814.363	0.05
814.666	0.05
814.969	0.05
815.271	0.05
815.574	0.04
815.877	0.04
816.179	0.05
816.481	0.03
816.784	0.04
817.086	0.03
817.388	0.03
817.69	0.03
817.993	0.02
818.295	0.04
818.597	0.03
818.899	0.03
819.2	0.02
819.502	0.03
819.804	0.03
820.106	0.02
820.407	0.02
820.709	0.03
821.01	0.03
821.312	0.04
821.613	0.02
821.915	0.03
822.216	0.03
822.517	0.03
822.818	0.03
823.119	0.03
823.42	0.03
823.721	0.03
824.022	0.03
824.323	0.03
824.624	0.03
824.925	0.04
825.226	0.04
825.526	0.04
825.827	0.03
826.127	0.04
826.428	0.03
826.728	0.03
827.028	0.03
827.329	0.03
827.629	0.02
827.929	0.03
828.229	0.03
828.529	0.04
828.829	0.03
829.129	0.03
829.429	0.03
829.729	0.03
830.029	0.02
830.328	0.03
830.628	0.02
830.927	0.01
831.227	0.02
831.526	0.03
831.826	0.03
832.125	0.03
832.424	0.02
832.724	0.03
833.023	0.03
833.322	0.03
833.621	0.02
833.92	0.01
834.219	0.02
834.518	0.02
834.816	0.01
835.115	0.02
835.414	0.02
835.712	0.02
836.011	0.01
836.309	0.02
836.608	0.01
836.906	0.01
837.205	0
837.503	0.01
837.801	0.01
838.099	-0
838.397	-0
838.695	-0
838.993	0
839.291	-0.01
839.589	-0.01
839.887	-0.01
840.184	-0.01
840.482	-0.02
840.78	-0.01
841.077	-0.02
841.375	-0.02
841.672	-0.02
841.969	-0.02
842.267	-0.03
842.564	-0.02
842.861	-0.02
843.158	-0.03
843.455	-0.04
843.752	-0.04
844.049	-0.03
844.346	-0.03
844.643	-0.04
844.94	-0.04
845.236	-0.03
845.533	-0.04
845.83	-0.04
846.126	-0.04
846.423	-0.04
846.719	-0.06
847.015	-0.05
847.312	-0.05
847.608	-0.06
847.904	-0.06
848.2	-0.06
848.496	-0.06
848.792	-0.05
849.088	-0.04
849.384	-0.06
849.68	-0.06
849.975	-0.05
850.271	-0.06
850.567	-0.06
850.862	-0.06
851.158	-0.06
851.453	-0.06
851.748	-0.08
852.044	-0.06
852.339	-0.05
852.634	-0.08
852.929	-0.07
853.224	-0.07
853.519	-0.07
853.814	-0.07
854.109	-0.08
854.404	-0.09
854.699	-0.08
854.994	-0.08
855.288	-0.07
855.583	-0.07
855.877	-0.08
856.172	-0.08
856.466	-0.08
856.76	-0.08
857.055	-0.08
857.349	-0.1
857.643	-0.1
857.937	-0.1
858.231	-0.09
858.525	-0.1
858.819	-0.09
859.113	-0.11
859.407	-0.11
859.701	-0.11
859.994	-0.11
860.288	-0.11
860.581	-0.12
860.875	-0.11
861.168	-0.12
861.462	-0.12
861.755	-0.11
862.048	-0.12
862.341	-0.11
862.634	-0.12
862.928	-0.11
863.221	-0.13
863.513	-0.12
863.806	-0.12
864.099	-0.12
864.392	-0.13
864.685	-0.12
864.977	-0.13
865.27	-0.13
865.562	-0.13
865.855	-0.13
866.147	-0.14
866.44	-0.13
866.732	-0.13
867.024	-0.13
867.316	-0.14
867.608	-0.14
867.9	-0.14
868.192	-0.14
868.484	-0.15
868.776	-0.15
869.068	-0.14
869.359	-0.15
869.651	-0.14
869.943	-0.16
870.234	-0.15
870.526	-0.16
870.817	-0.16
871.108	-0.14
871.4	-0.16
871.691	-0.16
871.982	-0.17
872.273	-0.18
872.564	-0.17
872.855	-0.16
873.146	-0.17
873.437	-0.16
873.728	-0.18
874.019	-0.17
874.309	-0.17
874.6	-0.17
874.89	-0.17
875.181	-0.18
875.471	-0.17
875.762	-0.17
876.052	-0.17
876.342	-0.17
876.632	-0.16
876.922	-0.18
877.213	-0.17
877.503	-0.18
877.792	-0.17
878.082	-0.18
878.372	-0.16
878.662	-0.19
878.952	-0.18
879.241	-0.19
879.531	-0.18
879.82	-0.19
880.11	-0.18
880.399	-0.18
880.688	-0.17
880.978	-0.17
881.267	-0.17
