Data from 12-12-AQDScycling_Absorbance__54__00054.txt Node

Date: Tue Dec 12 11:10:14 EST 2023
User: kyuminlee
Spectrometer: FLMS00943
Trigger mode: 0
Integration Time (sec): 1.000000E-1
Scans to average: 1
Electric dark correction enabled: true
Nonlinearity correction enabled: false
Boxcar width: 0
XAxis mode: Wavelengths
Number of Pixels in Spectrum: 2048
>>>>>Begin Spectral Data<<<<<
179.651	-0
180.037	-0
180.424	-0
180.81	-0
181.197	0.51
181.583	-0
181.97	-0.27
182.356	-0
182.743	-1.06
183.129	-0.09
183.515	0.99
183.901	-0
184.288	0.42
184.674	-0
185.06	-0.78
185.446	-0
185.832	-0
186.218	0.28
186.604	-0.42
186.99	-0
187.376	-0
187.762	0.39
188.148	0.56
188.534	0.17
188.92	0.03
189.305	0.14
189.691	0.02
190.077	0.09
190.463	0.17
190.848	0.14
191.234	0.06
191.619	0.07
192.005	0.17
192.391	0.2
192.776	0.14
193.161	0.12
193.547	0.05
193.932	0.15
194.318	0.16
194.703	0.23
195.088	0.19
195.473	0.09
195.859	0.14
196.244	0.29
196.629	0.14
197.014	0.15
197.399	0.43
197.784	0.31
198.169	0.04
198.554	0.16
198.939	0.21
199.324	0.16
199.709	0.02
200.094	0.18
200.478	0.09
200.863	0.15
201.248	0.07
201.633	0.15
202.017	0.02
202.402	0.41
202.787	0.2
203.171	0.07
203.556	0.22
203.94	0.28
204.325	0.18
204.709	0.24
205.093	0.14
205.478	0.27
205.862	0.14
206.246	0.11
206.631	0.2
207.015	0.06
207.399	0.25
207.783	0.21
208.167	0.24
208.551	0.27
208.935	0.34
209.319	0.23
209.703	0.16
210.087	0.33
210.471	0.16
210.855	0.19
211.239	0.26
211.623	0.35
212.007	0.36
212.39	0.33
212.774	0.29
213.158	0.16
213.541	0.15
213.925	0.18
214.309	0.44
214.692	0.34
215.076	0.35
215.459	0.3
215.842	0.14
216.226	0.22
216.609	0.41
216.993	0.38
217.376	0.43
217.759	0.2
218.142	0.34
218.525	0.43
218.909	0.37
219.292	0.32
219.675	0.43
220.058	0.79
220.441	0.42
220.824	0.51
221.207	0.6
221.59	0.51
221.973	0.63
222.355	0.61
222.738	0.78
223.121	0.71
223.504	0.6
223.886	0.76
224.269	0.75
224.652	0.67
225.034	0.76
225.417	0.81
225.799	0.76
226.182	0.98
226.564	0.95
226.947	0.75
227.329	0.87
227.711	0.99
228.094	0.86
228.476	0.96
228.858	0.9
229.24	0.88
229.623	0.94
230.005	0.84
230.387	0.83
230.769	0.79
231.151	0.98
231.533	0.95
231.915	1.01
232.297	1.09
232.679	1.02
233.061	1.06
233.442	1.03
233.824	1.02
234.206	1.27
234.588	1.04
234.969	1.17
235.351	1.02
235.733	1.27
236.114	1.33
236.496	0.99
236.877	1.21
237.259	1.07
237.64	1.17
238.022	0.93
238.403	1.03
238.784	1.01
239.165	0.96
239.547	1.12
239.928	1.12
240.309	1.14
240.69	1.13
241.071	1.2
241.452	1.14
241.834	1.04
242.215	1.1
242.595	1.07
242.976	1.07
243.357	1.27
243.738	1.05
244.119	1.22
244.5	1.17
244.881	1.22
245.261	1.33
245.642	1.29
246.023	1.23
246.403	1.27
246.784	1.25
247.164	1.49
247.545	1.25
247.925	1.37
248.306	1.23
248.686	1.47
249.067	1.42
249.447	1.43
249.827	1.72
250.207	1.41
250.588	1.38
250.968	1.53
251.348	1.4
251.728	1.49
252.108	1.42
252.488	1.39
252.868	1.44
253.248	1.43
253.628	1.39
254.008	1.68
254.388	1.39
254.768	1.36
255.147	1.44
255.527	1.58
255.907	1.43
256.287	1.29
256.666	1.53
257.046	1.7
257.425	1.57
257.805	1.41
258.184	1.36
258.564	1.45
258.943	1.33
259.323	1.55
259.702	1.59
260.081	1.47
260.461	1.58
260.84	1.58
261.219	1.73
261.598	1.53
261.977	1.46
262.356	1.53
262.736	1.66
263.115	1.54
263.494	1.55
263.873	1.49
264.251	1.56
264.63	1.6
265.009	1.46
265.388	1.45
265.767	1.3
266.145	1.41
266.524	1.41
266.903	1.46
267.281	1.48
267.66	1.63
268.039	1.5
268.417	1.52
268.796	1.38
269.174	1.48
269.552	1.41
269.931	1.36
270.309	1.49
270.687	1.59
271.066	1.59
271.444	1.33
271.822	1.53
272.2	1.52
272.578	1.45
272.956	1.45
273.334	1.42
273.712	1.51
274.09	1.58
274.468	1.41
274.846	1.28
275.224	1.37
275.602	1.46
275.98	1.46
276.357	1.36
276.735	1.5
277.113	1.49
277.49	1.39
277.868	1.25
278.246	1.59
278.623	1.4
279.001	1.43
279.378	1.39
279.756	1.55
280.133	1.65
280.51	1.37
280.888	1.59
281.265	1.54
281.642	1.47
282.019	1.59
282.396	1.57
282.773	1.47
283.151	1.65
283.528	1.57
283.905	1.4
284.282	1.75
284.659	1.69
285.035	1.47
285.412	1.35
285.789	1.51
286.166	1.53
286.543	1.5
286.919	1.42
287.296	1.4
287.673	1.84
288.049	1.66
288.426	1.57
288.802	1.51
289.179	1.42
289.555	1.67
289.932	1.76
290.308	1.39
290.684	1.4
291.061	1.34
291.437	1.7
291.813	1.58
292.189	1.26
292.565	1.23
292.942	1.49
293.318	1.43
293.694	1.4
294.07	1.32
294.446	1.37
294.822	1.53
295.197	1.43
295.573	1.44
295.949	1.64
296.325	1.55
296.701	1.56
297.076	1.62
297.452	1.52
297.828	1.44
298.203	1.58
298.579	1.44
298.954	1.41
299.33	1.59
299.705	1.48
300.081	1.74
300.456	1.6
300.831	1.39
301.206	1.43
301.582	1.54
301.957	1.39
302.332	1.53
302.707	1.37
303.082	1.48
303.457	1.47
303.832	1.51
304.207	1.48
304.582	1.43
304.957	1.55
305.332	1.48
305.707	1.49
306.082	1.53
306.456	1.43
306.831	1.36
307.206	1.51
307.58	1.39
307.955	1.4
308.33	1.41
308.704	1.46
309.079	1.48
309.453	1.51
309.828	1.38
310.202	1.36
310.576	1.43
310.951	1.41
311.325	1.45
311.699	1.45
312.073	1.29
312.447	1.33
312.821	1.37
313.196	1.46
313.57	1.36
313.944	1.38
314.317	1.37
314.691	1.43
315.065	1.39
315.439	1.45
315.813	1.41
316.187	1.34
316.56	1.47
316.934	1.48
317.308	1.41
317.681	1.5
318.055	1.4
318.428	1.35
318.802	1.53
319.175	1.4
319.549	1.42
319.922	1.35
320.295	1.33
320.669	1.58
321.042	1.48
321.415	1.69
321.788	1.61
322.162	1.32
322.535	1.56
322.908	1.53
323.281	1.37
323.654	1.69
324.027	1.46
324.4	1.54
324.773	1.52
325.145	1.39
325.518	1.41
325.891	1.39
326.264	1.58
326.636	1.45
327.009	1.42
327.382	1.43
327.754	1.56
328.127	1.38
328.499	1.56
328.872	1.41
329.244	1.55
329.616	1.46
329.989	1.39
330.361	1.45
330.733	1.41
331.106	1.48
331.478	1.66
331.85	1.4
332.222	1.42
332.594	1.57
332.966	1.51
333.338	1.52
333.71	1.51
334.082	1.66
334.454	1.38
334.826	1.5
335.197	1.53
335.569	1.5
335.941	1.34
336.312	1.41
336.684	1.45
337.056	1.38
337.427	1.51
337.799	1.52
338.17	1.6
338.542	1.4
338.913	1.49
339.284	1.46
339.656	1.46
340.027	1.58
340.398	1.45
340.769	1.4
341.141	1.61
341.512	1.53
341.883	1.52
342.254	1.53
342.625	1.44
342.996	1.42
343.367	1.45
343.738	1.51
344.108	1.56
344.479	1.72
344.85	1.45
345.221	1.55
345.591	1.39
345.962	1.41
346.333	1.46
346.703	1.38
347.074	1.29
347.444	1.32
347.815	1.47
348.185	1.43
348.556	1.28
348.926	1.28
349.296	1.38
349.666	1.34
350.037	1.34
350.407	1.22
350.777	1.43
351.147	1.36
351.517	1.46
351.887	1.25
352.257	1.54
352.627	1.23
352.997	1.36
353.367	1.35
353.737	1.5
354.106	1.45
354.476	1.29
354.846	1.34
355.216	1.36
355.585	1.37
355.955	1.32
356.324	1.39
356.694	1.37
357.063	1.36
357.433	1.27
357.802	1.35
358.171	1.35
358.541	1.33
358.91	1.4
359.279	1.32
359.648	1.32
360.017	1.35
360.387	1.36
360.756	1.24
361.125	1.36
361.494	1.3
361.863	1.32
362.231	1.29
362.6	1.42
362.969	1.42
363.338	1.24
363.707	1.36
364.075	1.37
364.444	1.25
364.813	1.33
365.181	1.35
365.55	1.32
365.918	1.36
366.287	1.29
366.655	1.38
367.024	1.3
367.392	1.34
367.76	1.31
368.128	1.31
368.497	1.31
368.865	1.28
369.233	1.31
369.601	1.29
369.969	1.28
370.337	1.3
370.705	1.27
371.073	1.38
371.441	1.28
371.809	1.34
372.177	1.34
372.544	1.38
372.912	1.31
373.28	1.36
373.647	1.4
374.015	1.36
374.383	1.46
374.75	1.49
375.118	1.43
375.485	1.41
375.853	1.5
376.22	1.35
376.587	1.31
376.955	1.52
377.322	1.34
377.689	1.39
378.056	1.4
378.423	1.37
378.79	1.34
379.157	1.45
379.524	1.39
379.891	1.34
380.258	1.45
380.625	1.34
380.992	1.37
381.359	1.36
381.726	1.6
382.092	1.37
382.459	1.44
382.826	1.46
383.192	1.43
383.559	1.49
383.925	1.4
384.292	1.39
384.658	1.54
385.025	1.56
385.391	1.6
385.757	1.57
386.123	1.48
386.49	1.39
386.856	1.58
387.222	1.6
387.588	1.56
387.954	1.64
388.32	1.67
388.686	1.57
389.052	1.46
389.418	1.55
389.784	1.52
390.15	1.49
390.515	1.28
390.881	1.58
391.247	1.6
391.613	1.47
391.978	1.47
392.344	1.64
392.709	1.52
393.075	1.53
393.44	1.43
393.806	1.53
394.171	1.44
394.536	1.46
394.902	1.47
395.267	1.43
395.632	1.4
395.997	1.45
396.362	1.49
396.727	1.5
397.092	1.55
397.457	1.49
397.822	1.45
398.187	1.61
398.552	1.42
398.917	1.46
399.282	1.37
399.646	1.48
400.011	1.62
400.376	1.47
400.74	1.43
401.105	1.49
401.47	1.46
401.834	1.49
402.199	1.43
402.563	1.38
402.927	1.42
403.292	1.35
403.656	1.41
404.02	1.44
404.384	1.56
404.749	1.38
405.113	1.41
405.477	1.41
405.841	1.37
406.205	1.36
406.569	1.31
406.933	1.33
407.296	1.36
407.66	1.32
408.024	1.34
408.388	1.4
408.752	1.36
409.115	1.35
409.479	1.38
409.842	1.33
410.206	1.3
410.569	1.21
410.933	1.27
411.296	1.21
411.66	1.33
412.023	1.23
412.386	1.24
412.749	1.24
413.113	1.23
413.476	1.2
413.839	1.22
414.202	1.22
414.565	1.12
414.928	1.2
415.291	1.17
415.654	1.21
416.017	1.23
416.38	1.09
416.742	1.11
417.105	1.11
417.468	1.17
417.83	1.2
418.193	1.27
418.556	1.19
418.918	1.13
419.281	1.15
419.643	1.2
420.005	1.2
420.368	1.13
420.73	1.13
421.092	1.18
421.455	1.19
421.817	1.12
422.179	1.13
422.541	1.17
422.903	1.21
423.265	1.14
423.627	1.11
423.989	1.12
424.351	1.13
424.713	1.12
425.075	1.08
425.436	1.1
425.798	1.11
426.16	1.13
426.521	1.11
426.883	1.08
427.245	1.12
427.606	1.08
427.967	1.04
428.329	1.06
428.69	1.14
429.052	1.05
429.413	1.12
429.774	1.11
430.135	1.07
430.497	1.08
430.858	1.07
431.219	1.07
431.58	1.03
431.941	1.03
432.302	1.02
432.663	1.04
433.024	1.05
433.384	1.04
433.745	1
434.106	1.03
434.467	1.04
434.827	1.03
435.188	1.04
435.548	1.07
435.909	1.02
436.269	1.04
436.63	1.01
436.99	1
437.351	1
437.711	1.02
438.071	0.99
438.431	0.95
438.792	0.99
439.152	0.97
439.512	0.98
439.872	0.96
440.232	1
440.592	0.97
440.952	0.94
441.312	0.92
441.671	0.92
442.031	0.94
442.391	0.91
442.751	0.93
443.11	0.92
443.47	0.91
443.83	0.89
444.189	0.91
444.549	0.91
444.908	0.9
445.267	0.88
445.627	0.91
445.986	0.85
446.345	0.87
446.705	0.88
447.064	0.86
447.423	0.85
447.782	0.86
448.141	0.83
448.5	0.84
448.859	0.84
449.218	0.83
449.577	0.84
449.936	0.84
450.295	0.83
450.653	0.82
451.012	0.82
451.371	0.81
451.729	0.8
452.088	0.8
452.447	0.8
452.805	0.79
453.163	0.79
453.522	0.79
453.88	0.76
454.239	0.77
454.597	0.76
454.955	0.75
455.313	0.74
455.671	0.74
456.029	0.73
456.388	0.73
456.746	0.72
457.104	0.72
457.461	0.69
457.819	0.7
458.177	0.68
458.535	0.67
458.893	0.66
459.25	0.66
459.608	0.66
459.966	0.64
460.323	0.64
460.681	0.62
461.038	0.63
461.396	0.61
461.753	0.62
462.111	0.6
462.468	0.6
462.825	0.6
463.182	0.58
463.54	0.57
463.897	0.58
464.254	0.58
464.611	0.56
464.968	0.55
465.325	0.55
465.682	0.55
466.039	0.53
466.395	0.52
466.752	0.52
467.109	0.53
467.466	0.52
467.822	0.51
468.179	0.5
468.535	0.49
468.892	0.5
469.248	0.48
469.605	0.47
469.961	0.48
470.318	0.47
470.674	0.47
471.03	0.45
471.386	0.46
471.743	0.44
472.099	0.43
472.455	0.43
472.811	0.42
473.167	0.41
473.523	0.4
473.879	0.41
474.235	0.4
474.59	0.39
474.946	0.4
475.302	0.39
475.657	0.38
476.013	0.37
476.369	0.37
476.724	0.38
477.08	0.36
477.435	0.37
477.791	0.37
478.146	0.36
478.501	0.35
478.857	0.34
479.212	0.34
479.567	0.34
479.922	0.32
480.277	0.33
480.632	0.31
480.987	0.32
481.342	0.31
481.697	0.31
482.052	0.3
482.407	0.29
482.762	0.29
483.116	0.29
483.471	0.29
483.826	0.27
484.18	0.28
484.535	0.27
484.89	0.27
485.244	0.26
485.598	0.27
485.953	0.27
486.307	0.26
486.661	0.27
487.016	0.25
487.37	0.25
487.724	0.25
488.078	0.25
488.432	0.24
488.786	0.25
489.14	0.24
489.494	0.24
489.848	0.24
490.202	0.23
490.556	0.24
490.91	0.23
491.263	0.23
491.617	0.23
491.971	0.22
492.324	0.22
492.678	0.22
493.031	0.22
493.385	0.21
493.738	0.21
494.091	0.21
494.445	0.21
494.798	0.21
495.151	0.21
495.504	0.21
495.857	0.21
496.21	0.21
496.564	0.2
496.916	0.21
497.269	0.2
497.622	0.2
497.975	0.19
498.328	0.2
498.681	0.2
499.033	0.19
499.386	0.19
499.739	0.19
500.091	0.19
500.444	0.19
500.796	0.19
501.149	0.19
501.501	0.19
501.854	0.18
502.206	0.19
502.558	0.19
502.91	0.19
503.263	0.18
503.615	0.18
503.967	0.17
504.319	0.19
504.671	0.17
505.023	0.18
505.375	0.18
505.726	0.18
506.078	0.17
506.43	0.17
506.782	0.17
507.133	0.17
507.485	0.18
507.837	0.18
508.188	0.18
508.54	0.17
508.891	0.18
509.243	0.16
509.594	0.17
509.945	0.17
510.296	0.17
510.648	0.17
510.999	0.16
511.35	0.17
511.701	0.17
512.052	0.17
512.403	0.17
512.754	0.16
513.105	0.16
513.456	0.16
513.807	0.15
514.157	0.16
514.508	0.16
514.859	0.15
515.209	0.15
515.56	0.16
515.91	0.16
516.261	0.16
516.611	0.16
516.962	0.16
517.312	0.16
517.662	0.16
518.013	0.16
518.363	0.16
518.713	0.16
519.063	0.16
519.413	0.16
519.763	0.15
520.113	0.16
520.463	0.16
520.813	0.17
521.163	0.17
521.512	0.16
521.862	0.16
522.212	0.16
522.562	0.16
522.911	0.16
523.261	0.16
523.61	0.16
523.96	0.16
524.309	0.16
524.658	0.16
525.008	0.16
525.357	0.16
525.706	0.17
526.056	0.16
526.405	0.16
526.754	0.17
527.103	0.16
527.452	0.16
527.801	0.17
528.15	0.16
528.499	0.16
528.847	0.17
529.196	0.17
529.545	0.17
529.893	0.16
530.242	0.17
530.591	0.17
530.939	0.17
531.288	0.16
531.636	0.17
531.985	0.16
532.333	0.16
532.681	0.17
533.029	0.16
533.378	0.17
533.726	0.17
534.074	0.17
534.422	0.16
534.77	0.17
535.118	0.17
535.466	0.16
535.814	0.17
536.162	0.17
536.509	0.17
536.857	0.17
537.205	0.17
537.552	0.17
537.9	0.17
538.248	0.16
538.595	0.16
538.943	0.17
539.29	0.16
539.637	0.16
539.985	0.17
540.332	0.16
540.679	0.16
541.026	0.16
541.373	0.17
541.721	0.16
542.068	0.16
542.415	0.17
542.762	0.16
543.108	0.15
543.455	0.16
543.802	0.16
544.149	0.16
544.496	0.16
544.842	0.16
545.189	0.15
545.535	0.16
545.882	0.16
546.228	0.15
546.575	0.15
546.921	0.15
547.267	0.16
547.614	0.16
547.96	0.16
548.306	0.15
548.652	0.16
548.998	0.17
549.344	0.15
549.69	0.16
550.036	0.16
550.382	0.16
550.728	0.16
551.074	0.17
551.42	0.16
551.765	0.17
552.111	0.17
552.457	0.17
552.802	0.16
553.148	0.16
553.493	0.17
553.839	0.17
554.184	0.17
554.529	0.16
554.875	0.17
555.22	0.18
555.565	0.17
555.91	0.17
556.255	0.18
556.6	0.18
556.945	0.17
557.29	0.17
557.635	0.17
557.98	0.17
558.325	0.17
558.67	0.17
559.014	0.16
559.359	0.17
559.704	0.17
560.048	0.15
560.393	0.16
560.737	0.15
561.082	0.16
561.426	0.15
561.77	0.17
562.115	0.15
562.459	0.17
562.803	0.16
563.147	0.16
563.491	0.17
563.835	0.16
564.179	0.17
564.523	0.16
564.867	0.16
565.211	0.16
565.555	0.16
565.899	0.17
566.242	0.17
566.586	0.16
566.93	0.17
567.273	0.17
567.617	0.17
567.96	0.17
568.304	0.17
568.647	0.16
568.99	0.17
569.334	0.17
569.677	0.17
570.02	0.17
570.363	0.17
570.706	0.17
571.049	0.17
571.392	0.18
571.735	0.17
572.078	0.17
572.421	0.18
572.764	0.17
573.106	0.18
573.449	0.17
573.792	0.17
574.134	0.17
574.477	0.18
574.819	0.17
575.162	0.17
575.504	0.17
575.847	0.17
576.189	0.17
576.531	0.17
576.873	0.17
577.215	0.17
577.558	0.17
577.9	0.16
578.242	0.16
578.584	0.16
578.926	0.16
579.267	0.15
579.609	0.17
579.951	0.16
580.293	0.16
580.634	0.17
580.976	0.17
581.318	0.16
581.659	0.16
582.001	0.16
582.342	0.16
582.683	0.16
583.025	0.16
583.366	0.16
583.707	0.17
584.049	0.17
584.39	0.16
584.731	0.17
585.072	0.16
585.413	0.17
585.754	0.16
586.095	0.16
586.435	0.16
586.776	0.16
587.117	0.16
587.458	0.16
587.798	0.16
588.139	0.16
588.48	0.16
588.82	0.16
589.161	0.16
589.501	0.16
589.841	0.15
590.182	0.15
590.522	0.14
590.862	0.15
591.202	0.15
591.542	0.16
591.882	0.16
592.222	0.16
592.562	0.16
592.902	0.15
593.242	0.15
593.582	0.16
593.922	0.15
594.261	0.16
594.601	0.15
594.941	0.16
595.28	0.16
595.62	0.16
595.959	0.16
596.299	0.16
596.638	0.16
596.977	0.15
597.317	0.17
597.656	0.16
597.995	0.16
598.334	0.17
598.673	0.16
599.012	0.16
599.351	0.16
599.69	0.16
600.029	0.16
600.368	0.16
600.707	0.16
601.046	0.16
601.384	0.17
601.723	0.16
602.061	0.15
602.4	0.15
602.738	0.16
603.077	0.16
603.415	0.15
603.754	0.16
604.092	0.17
604.43	0.16
604.768	0.16
605.107	0.16
605.445	0.16
605.783	0.16
606.121	0.15
606.459	0.16
606.796	0.16
607.134	0.15
607.472	0.16
607.81	0.16
608.148	0.16
608.485	0.17
608.823	0.16
609.16	0.16
609.498	0.16
609.835	0.16
610.173	0.16
610.51	0.16
610.847	0.16
611.185	0.16
611.522	0.17
611.859	0.17
612.196	0.17
612.533	0.17
612.87	0.17
613.207	0.17
613.544	0.17
613.881	0.18
614.217	0.17
614.554	0.17
614.891	0.16
615.228	0.17
615.564	0.17
615.901	0.17
616.237	0.17
616.574	0.16
616.91	0.17
617.246	0.17
617.583	0.16
617.919	0.16
618.255	0.17
618.591	0.16
618.927	0.16
619.263	0.17
619.599	0.17
619.935	0.16
620.271	0.16
620.607	0.16
620.943	0.16
621.279	0.16
621.614	0.16
621.95	0.16
622.286	0.16
622.621	0.16
622.957	0.16
623.292	0.15
623.627	0.16
623.963	0.15
624.298	0.16
624.633	0.15
624.968	0.14
625.304	0.15
625.639	0.15
625.974	0.15
626.309	0.15
626.644	0.15
626.979	0.16
627.313	0.16
627.648	0.16
627.983	0.16
628.318	0.15
628.652	0.15
628.987	0.15
629.321	0.16
629.656	0.15
629.99	0.15
630.325	0.15
630.659	0.15
630.993	0.15
631.327	0.16
631.662	0.14
631.996	0.15
632.33	0.15
632.664	0.15
632.998	0.14
633.332	0.14
633.666	0.14
633.999	0.14
634.333	0.13
634.667	0.14
635.001	0.14
635.334	0.14
635.668	0.14
636.001	0.14
636.335	0.13
636.668	0.14
637.001	0.14
637.335	0.14
637.668	0.14
638.001	0.14
638.334	0.14
638.668	0.13
639.001	0.14
639.334	0.14
639.667	0.14
639.999	0.14
640.332	0.14
640.665	0.13
640.998	0.14
641.331	0.14
641.663	0.14
641.996	0.14
642.328	0.15
642.661	0.14
642.993	0.14
643.326	0.15
643.658	0.14
643.99	0.13
644.323	0.14
644.655	0.15
644.987	0.14
645.319	0.14
645.651	0.14
645.983	0.14
646.315	0.14
646.647	0.14
646.979	0.15
647.31	0.14
647.642	0.15
647.974	0.14
648.305	0.15
648.637	0.15
648.968	0.14
649.3	0.15
649.631	0.15
649.963	0.14
650.294	0.14
650.625	0.14
650.957	0.15
651.288	0.14
651.619	0.14
651.95	0.15
652.281	0.14
652.612	0.13
652.943	0.14
653.274	0.14
653.604	0.13
653.935	0.14
654.266	0.13
654.596	0.13
654.927	0.13
655.258	0.14
655.588	0.14
655.918	0.14
656.249	0.12
656.579	0.13
656.909	0.14
657.24	0.13
657.57	0.14
657.9	0.13
658.23	0.14
658.56	0.14
658.89	0.14
659.22	0.14
659.55	0.13
659.88	0.14
660.209	0.13
660.539	0.15
660.869	0.13
661.198	0.13
661.528	0.14
661.857	0.14
662.187	0.13
662.516	0.13
662.846	0.13
663.175	0.14
663.504	0.13
663.833	0.13
664.163	0.14
664.492	0.13
664.821	0.13
665.15	0.12
665.479	0.13
665.807	0.13
666.136	0.13
666.465	0.13
666.794	0.13
667.122	0.13
667.451	0.12
667.78	0.12
668.108	0.13
668.437	0.13
668.765	0.13
669.093	0.13
669.422	0.13
669.75	0.13
670.078	0.12
670.406	0.13
670.734	0.13
671.062	0.13
671.39	0.12
671.718	0.13
672.046	0.12
672.374	0.11
672.702	0.12
673.029	0.12
673.357	0.12
673.685	0.13
674.012	0.12
674.34	0.12
674.667	0.13
674.995	0.12
675.322	0.13
675.649	0.12
675.977	0.12
676.304	0.11
676.631	0.12
676.958	0.12
677.285	0.11
677.612	0.1
677.939	0.11
678.266	0.11
678.593	0.11
678.92	0.11
679.246	0.11
679.573	0.11
679.9	0.11
680.226	0.1
680.553	0.1
680.879	0.1
681.206	0.11
681.532	0.11
681.858	0.11
682.184	0.11
682.511	0.1
682.837	0.1
683.163	0.11
683.489	0.11
683.815	0.11
684.141	0.1
684.467	0.1
684.793	0.1
685.118	0.1
685.444	0.1
685.77	0.1
686.095	0.1
686.421	0.11
686.746	0.1
687.072	0.11
687.397	0.1
687.723	0.11
688.048	0.11
688.373	0.1
688.698	0.1
689.023	0.1
689.349	0.1
689.674	0.1
689.999	0.09
690.323	0.09
690.648	0.09
690.973	0.09
691.298	0.09
691.623	0.09
691.947	0.09
692.272	0.09
692.596	0.1
692.921	0.09
693.245	0.09
693.57	0.09
693.894	0.09
694.218	0.1
694.543	0.09
694.867	0.09
695.191	0.09
695.515	0.09
695.839	0.08
696.163	0.09
696.487	0.09
696.811	0.09
697.135	0.1
697.458	0.09
697.782	0.09
698.106	0.09
698.429	0.1
698.753	0.1
699.076	0.09
699.4	0.1
699.723	0.09
700.046	0.09
700.37	0.09
700.693	0.1
701.016	0.09
701.339	0.1
701.662	0.1
701.985	0.1
702.308	0.09
702.631	0.1
702.954	0.09
703.277	0.1
703.599	0.1
703.922	0.09
704.245	0.09
704.567	0.09
704.89	0.08
705.212	0.08
705.535	0.08
705.857	0.08
706.179	0.08
706.502	0.08
706.824	0.08
707.146	0.08
707.468	0.08
707.79	0.07
708.112	0.09
708.434	0.08
708.756	0.08
709.078	0.08
709.399	0.07
709.721	0.08
710.043	0.08
710.364	0.07
710.686	0.08
711.007	0.08
711.329	0.08
711.65	0.08
711.972	0.08
712.293	0.08
712.614	0.08
712.935	0.08
713.256	0.08
713.577	0.08
713.898	0.08
714.219	0.08
714.54	0.07
714.861	0.07
715.182	0.08
715.503	0.08
715.823	0.08
716.144	0.08
716.464	0.07
716.785	0.07
717.105	0.07
717.426	0.08
717.746	0.07
718.066	0.07
718.387	0.07
718.707	0.07
719.027	0.07
719.347	0.06
719.667	0.07
719.987	0.06
720.307	0.07
720.627	0.07
720.947	0.07
721.266	0.07
721.586	0.07
721.906	0.07
722.225	0.06
722.545	0.06
722.864	0.06
723.184	0.07
723.503	0.07
723.823	0.08
724.142	0.06
724.461	0.06
724.78	0.07
725.099	0.06
725.418	0.07
725.737	0.07
726.056	0.07
726.375	0.07
726.694	0.07
727.013	0.07
727.331	0.06
727.65	0.06
727.969	0.07
728.287	0.07
728.606	0.06
728.924	0.06
729.242	0.06
729.561	0.06
729.879	0.07
730.197	0.07
730.515	0.06
730.834	0.06
731.152	0.06
731.47	0.06
731.788	0.05
732.105	0.05
732.423	0.06
732.741	0.05
733.059	0.06
733.376	0.05
733.694	0.05
734.012	0.05
734.329	0.06
734.647	0.05
734.964	0.07
735.281	0.06
735.599	0.07
735.916	0.07
736.233	0.06
736.55	0.06
736.867	0.06
737.184	0.07
737.501	0.06
737.818	0.06
738.135	0.07
738.452	0.06
738.768	0.06
739.085	0.06
739.402	0.05
739.718	0.06
740.035	0.06
740.351	0.06
740.668	0.07
740.984	0.06
741.3	0.06
741.617	0.06
741.933	0.06
742.249	0.06
742.565	0.06
742.881	0.07
743.197	0.06
743.513	0.05
743.829	0.06
744.144	0.06
744.46	0.06
744.776	0.06
745.091	0.05
745.407	0.06
745.722	0.06
746.038	0.06
746.353	0.05
746.669	0.06
746.984	0.05
747.299	0.06
747.614	0.06
747.93	0.06
748.245	0.05
748.56	0.05
748.875	0.05
749.189	0.04
749.504	0.05
749.819	0.06
750.134	0.05
750.448	0.05
750.763	0.05
751.078	0.04
751.392	0.05
751.707	0.06
752.021	0.06
752.335	0.06
752.65	0.06
752.964	0.06
753.278	0.06
753.592	0.06
753.906	0.06
754.22	0.06
754.534	0.06
754.848	0.06
755.162	0.06
755.476	0.06
755.789	0.06
756.103	0.06
756.417	0.06
756.73	0.06
757.044	0.06
757.357	0.06
757.671	0.06
757.984	0.06
758.297	0.06
758.61	0.07
758.924	0.06
759.237	0.06
759.55	0.05
759.863	0.05
760.176	0.06
760.488	0.06
760.801	0.06
761.114	0.05
761.427	0.06
761.739	0.06
762.052	0.05
762.365	0.04
762.677	0.05
762.99	0.05
763.302	0.06
763.614	0.05
763.926	0.05
764.239	0.05
764.551	0.05
764.863	0.05
765.175	0.06
765.487	0.05
765.799	0.04
766.111	0.04
766.423	0.05
766.734	0.05
767.046	0.05
767.358	0.05
767.669	0.05
767.981	0.05
768.292	0.05
768.604	0.05
768.915	0.04
769.226	0.05
769.537	0.04
769.849	0.05
770.16	0.04
770.471	0.04
770.782	0.04
771.093	0.04
771.404	0.03
771.715	0.03
772.025	0.05
772.336	0.03
772.647	0.03
772.957	0.04
773.268	0.04
773.578	0.04
773.889	0.04
774.199	0.05
774.51	0.04
774.82	0.04
775.13	0.04
775.44	0.04
775.75	0.04
776.06	0.05
776.37	0.04
776.68	0.05
776.99	0.04
777.3	0.04
777.61	0.05
777.92	0.04
778.229	0.04
778.539	0.04
778.848	0.04
779.158	0.04
779.467	0.05
779.777	0.04
780.086	0.05
780.395	0.04
780.704	0.03
781.013	0.03
781.323	0.03
781.632	0.04
781.941	0.04
782.249	0.04
782.558	0.03
782.867	0.04
783.176	0.03
783.485	0.04
783.793	0.04
784.102	0.04
784.41	0.04
784.719	0.04
785.027	0.04
785.335	0.04
785.644	0.04
785.952	0.04
786.26	0.04
786.568	0.03
786.876	0.03
787.184	0.04
787.492	0.04
787.8	0.04
788.108	0.04
788.416	0.03
788.723	0.04
789.031	0.03
789.338	0.04
789.646	0.03
789.953	0.04
790.261	0.05
790.568	0.05
790.876	0.04
791.183	0.05
791.49	0.04
791.797	0.04
792.104	0.04
792.411	0.05
792.718	0.04
793.025	0.05
793.332	0.05
793.639	0.05
793.945	0.05
794.252	0.06
794.559	0.05
794.865	0.06
795.172	0.05
795.478	0.04
795.784	0.05
796.091	0.05
796.397	0.05
796.703	0.04
797.009	0.06
797.315	0.05
797.622	0.05
797.927	0.04
798.233	0.04
798.539	0.05
798.845	0.05
799.151	0.05
799.456	0.04
799.762	0.04
800.068	0.03
800.373	0.04
800.679	0.03
800.984	0.04
801.289	0.03
801.595	0.03
801.9	0.03
802.205	0.03
802.51	0.04
802.815	0.03
803.12	0.03
803.425	0.03
803.73	0.03
804.035	0.03
804.339	0.03
804.644	0.03
804.949	0.03
805.253	0.03
805.558	0.04
805.862	0.03
806.167	0.04
806.471	0.03
806.775	0.04
807.08	0.04
807.384	0.04
807.688	0.04
807.992	0.04
808.296	0.04
808.6	0.04
808.904	0.04
809.207	0.04
809.511	0.05
809.815	0.05
810.119	0.04
810.422	0.05
810.726	0.05
811.029	0.05
811.332	0.05
811.636	0.05
811.939	0.04
812.242	0.05
812.546	0.05
812.849	0.04
813.152	0.05
813.455	0.05
813.758	0.05
814.06	0.05
814.363	0.05
814.666	0.05
814.969	0.05
815.271	0.05
815.574	0.04
815.877	0.04
816.179	0.05
816.481	0.04
816.784	0.05
817.086	0.04
817.388	0.04
817.69	0.04
817.993	0.04
818.295	0.03
818.597	0.03
818.899	0.03
819.2	0.03
819.502	0.02
819.804	0.04
820.106	0.03
820.407	0.02
820.709	0.03
821.01	0.03
821.312	0.03
821.613	0.03
821.915	0.03
822.216	0.03
822.517	0.02
822.818	0.03
823.119	0.02
823.42	0.03
823.721	0.02
824.022	0.02
824.323	0.03
824.624	0.02
824.925	0.03
825.226	0.03
825.526	0.02
825.827	0.02
826.127	0.03
826.428	0.03
826.728	0.02
827.028	0.02
827.329	0.02
827.629	0.01
827.929	0.02
828.229	0.02
828.529	0.02
828.829	0.02
829.129	0.02
829.429	0.02
829.729	0.01
830.029	0.02
830.328	0.02
830.628	0.01
830.927	0.01
831.227	0.02
831.526	0.02
831.826	0.01
832.125	0.02
832.424	0.01
832.724	0.01
833.023	0.01
833.322	0.02
833.621	0.02
833.92	0.01
834.219	0.01
834.518	0.01
834.816	0
835.115	0
835.414	0
835.712	-0
836.011	-0
836.309	0
836.608	-0.01
836.906	-0.01
837.205	-0.01
837.503	-0.01
837.801	-0.01
838.099	-0.01
838.397	-0.02
838.695	-0.02
838.993	-0.02
839.291	-0.02
839.589	-0.02
839.887	-0.03
840.184	-0.02
840.482	-0.04
840.78	-0.04
841.077	-0.04
841.375	-0.04
841.672	-0.03
841.969	-0.05
842.267	-0.04
842.564	-0.04
842.861	-0.03
843.158	-0.04
843.455	-0.06
843.752	-0.04
844.049	-0.04
844.346	-0.04
844.643	-0.05
844.94	-0.04
845.236	-0.04
845.533	-0.04
845.83	-0.05
846.126	-0.05
846.423	-0.05
846.719	-0.06
847.015	-0.05
847.312	-0.05
847.608	-0.06
847.904	-0.06
848.2	-0.06
848.496	-0.06
848.792	-0.06
849.088	-0.05
849.384	-0.06
849.68	-0.07
849.975	-0.07
850.271	-0.07
850.567	-0.08
850.862	-0.08
851.158	-0.08
851.453	-0.08
851.748	-0.09
852.044	-0.09
852.339	-0.08
852.634	-0.1
852.929	-0.09
853.224	-0.09
853.519	-0.1
853.814	-0.09
854.109	-0.1
854.404	-0.11
854.699	-0.11
854.994	-0.1
855.288	-0.1
855.583	-0.1
855.877	-0.11
856.172	-0.11
856.466	-0.11
856.76	-0.11
857.055	-0.12
857.349	-0.12
857.643	-0.13
857.937	-0.13
858.231	-0.12
858.525	-0.13
858.819	-0.13
859.113	-0.14
859.407	-0.14
859.701	-0.13
859.994	-0.13
860.288	-0.12
860.581	-0.13
860.875	-0.14
861.168	-0.13
861.462	-0.14
861.755	-0.12
862.048	-0.13
862.341	-0.14
862.634	-0.13
862.928	-0.13
863.221	-0.13
863.513	-0.14
863.806	-0.13
864.099	-0.13
864.392	-0.13
864.685	-0.13
864.977	-0.13
865.27	-0.13
865.562	-0.13
865.855	-0.13
866.147	-0.14
866.44	-0.13
866.732	-0.13
867.024	-0.15
867.316	-0.14
867.608	-0.14
867.9	-0.14
868.192	-0.14
868.484	-0.14
868.776	-0.16
869.068	-0.14
869.359	-0.14
869.651	-0.14
869.943	-0.16
870.234	-0.16
870.526	-0.16
870.817	-0.15
871.108	-0.13
871.4	-0.14
871.691	-0.16
871.982	-0.15
872.273	-0.15
872.564	-0.15
872.855	-0.16
873.146	-0.17
873.437	-0.16
873.728	-0.16
874.019	-0.16
874.309	-0.17
874.6	-0.17
874.89	-0.16
875.181	-0.16
875.471	-0.15
875.762	-0.16
876.052	-0.16
876.342	-0.15
876.632	-0.17
876.922	-0.16
877.213	-0.16
877.503	-0.19
877.792	-0.17
878.082	-0.17
878.372	-0.15
878.662	-0.18
878.952	-0.17
879.241	-0.17
879.531	-0.17
879.82	-0.16
880.11	-0.19
880.399	-0.17
880.688	-0.17
880.978	-0.17
881.267	-0.17
