Data from 12-12-AQDScycling_Absorbance__299__00299.txt Node

Date: Tue Dec 12 12:11:29 EST 2023
User: kyuminlee
Spectrometer: FLMS00943
Trigger mode: 0
Integration Time (sec): 1.000000E-1
Scans to average: 1
Electric dark correction enabled: true
Nonlinearity correction enabled: false
Boxcar width: 0
XAxis mode: Wavelengths
Number of Pixels in Spectrum: 2048
>>>>>Begin Spectral Data<<<<<
179.651	-0
180.037	-0
180.424	-0
180.81	-0
181.197	0.36
181.583	-0
181.97	0.85
182.356	-0
182.743	-0
183.129	-0
183.515	0.69
183.901	-2.37
184.288	0.21
184.674	-0
185.06	-0.88
185.446	-0
185.832	-1.04
186.218	0.04
186.604	-0.28
186.99	-0
187.376	0.18
187.762	0.02
188.148	0.57
188.534	0.54
188.92	0.1
189.305	-0.01
189.691	0.17
190.077	0.24
190.463	0.07
190.848	0.07
191.234	0.07
191.619	0.04
192.005	0.06
192.391	0.28
192.776	0.16
193.161	0.1
193.547	0.1
193.932	0.11
194.318	0.08
194.703	0.4
195.088	0.13
195.473	0.25
195.859	0.18
196.244	0.18
196.629	0.13
197.014	0.05
197.399	0.3
197.784	0.2
198.169	0.31
198.554	0.25
198.939	0.14
199.324	0.11
199.709	0.13
200.094	0.06
200.478	0.04
200.863	0.29
201.248	0.21
201.633	0.18
202.017	0.11
202.402	0.2
202.787	0.16
203.171	0.19
203.556	0.28
203.94	0.13
204.325	0.24
204.709	0.18
205.093	0.21
205.478	0.1
205.862	0.14
206.246	0.04
206.631	0.09
207.015	0.08
207.399	0.19
207.783	0.26
208.167	0.11
208.551	0.12
208.935	0.12
209.319	0.14
209.703	0.23
210.087	0.27
210.471	0.06
210.855	0.18
211.239	0.29
211.623	0.24
212.007	0.27
212.39	0.26
212.774	0.1
213.158	0.25
213.541	0.26
213.925	0.22
214.309	0.29
214.692	0.19
215.076	0.22
215.459	0.2
215.842	0.18
216.226	0.26
216.609	0.29
216.993	0.25
217.376	0.41
217.759	0.13
218.142	0.37
218.525	0.39
218.909	0.57
219.292	0.24
219.675	0.41
220.058	0.47
220.441	0.58
220.824	0.45
221.207	0.56
221.59	0.53
221.973	0.5
222.355	0.62
222.738	0.72
223.121	0.64
223.504	0.52
223.886	0.7
224.269	0.71
224.652	0.6
225.034	0.76
225.417	0.84
225.799	0.89
226.182	0.87
226.564	0.79
226.947	0.78
227.329	0.82
227.711	1.05
228.094	0.98
228.476	0.84
228.858	0.77
229.24	0.82
229.623	0.95
230.005	0.86
230.387	0.93
230.769	0.85
231.151	0.88
231.533	1.02
231.915	0.86
232.297	1.05
232.679	0.96
233.061	1.09
233.442	0.97
233.824	1
234.206	1.17
234.588	1.39
234.969	1.03
235.351	0.91
235.733	1.06
236.114	1.22
236.496	1.16
236.877	1.09
237.259	1.07
237.64	1.06
238.022	1.04
238.403	1.15
238.784	1.05
239.165	0.95
239.547	1.1
239.928	1.11
240.309	1.02
240.69	1.16
241.071	1.09
241.452	1.09
241.834	1.17
242.215	1.02
242.595	1.11
242.976	1.08
243.357	1.08
243.738	1.03
244.119	1.36
244.5	1.1
244.881	1.3
245.261	1.2
245.642	1.15
246.023	1.22
246.403	1.18
246.784	1.31
247.164	1.45
247.545	1.23
247.925	1.3
248.306	1.29
248.686	1.35
249.067	1.25
249.447	1.42
249.827	1.52
250.207	1.58
250.588	1.33
250.968	1.51
251.348	1.43
251.728	1.4
252.108	1.43
252.488	1.33
252.868	1.4
253.248	1.33
253.628	1.34
254.008	1.6
254.388	1.39
254.768	1.39
255.147	1.48
255.527	1.41
255.907	1.3
256.287	1.38
256.666	1.55
257.046	1.49
257.425	1.54
257.805	1.33
258.184	1.33
258.564	1.47
258.943	1.37
259.323	1.57
259.702	1.48
260.081	1.61
260.461	1.47
260.84	1.47
261.219	1.9
261.598	1.46
261.977	1.44
262.356	1.65
262.736	1.46
263.115	1.59
263.494	1.4
263.873	1.52
264.251	1.45
264.63	1.68
265.009	1.37
265.388	1.64
265.767	1.37
266.145	1.48
266.524	1.51
266.903	1.51
267.281	1.38
267.66	1.47
268.039	1.5
268.417	1.41
268.796	1.54
269.174	1.38
269.552	1.43
269.931	1.63
270.309	1.48
270.687	1.94
271.066	1.52
271.444	1.4
271.822	1.76
272.2	1.47
272.578	1.37
272.956	1.39
273.334	1.4
273.712	1.53
274.09	1.57
274.468	1.42
274.846	1.4
275.224	1.37
275.602	1.39
275.98	1.57
276.357	1.38
276.735	1.54
277.113	1.53
277.49	1.38
277.868	1.39
278.246	1.42
278.623	1.24
279.001	1.32
279.378	1.41
279.756	1.51
280.133	1.48
280.51	1.44
280.888	1.47
281.265	1.45
281.642	1.46
282.019	1.54
282.396	1.63
282.773	1.45
283.151	1.45
283.528	1.49
283.905	1.43
284.282	1.67
284.659	1.58
285.035	1.35
285.412	1.34
285.789	1.42
286.166	1.42
286.543	1.33
286.919	1.68
287.296	1.34
287.673	1.63
288.049	1.45
288.426	1.51
288.802	1.57
289.179	1.41
289.555	1.69
289.932	1.41
290.308	1.47
290.684	1.31
291.061	1.37
291.437	1.41
291.813	1.4
292.189	1.31
292.565	1.34
292.942	1.29
293.318	1.54
293.694	1.39
294.07	1.41
294.446	1.5
294.822	1.63
295.197	1.42
295.573	1.66
295.949	1.46
296.325	1.47
296.701	1.47
297.076	1.53
297.452	1.59
297.828	1.41
298.203	1.66
298.579	1.5
298.954	1.47
299.33	1.37
299.705	1.41
300.081	1.47
300.456	1.4
300.831	1.43
301.206	1.49
301.582	1.48
301.957	1.48
302.332	1.6
302.707	1.36
303.082	1.38
303.457	1.35
303.832	1.42
304.207	1.33
304.582	1.34
304.957	1.35
305.332	1.43
305.707	1.34
306.082	1.34
306.456	1.36
306.831	1.36
307.206	1.38
307.58	1.24
307.955	1.27
308.33	1.27
308.704	1.43
309.079	1.31
309.453	1.38
309.828	1.28
310.202	1.27
310.576	1.31
310.951	1.28
311.325	1.34
311.699	1.28
312.073	1.21
312.447	1.34
312.821	1.23
313.196	1.28
313.57	1.17
313.944	1.24
314.317	1.15
314.691	1.25
315.065	1.29
315.439	1.28
315.813	1.26
316.187	1.26
316.56	1.31
316.934	1.35
317.308	1.23
317.681	1.32
318.055	1.3
318.428	1.28
318.802	1.33
319.175	1.3
319.549	1.28
319.922	1.23
320.295	1.28
320.669	1.34
321.042	1.25
321.415	1.41
321.788	1.36
322.162	1.25
322.535	1.4
322.908	1.37
323.281	1.34
323.654	1.38
324.027	1.27
324.4	1.24
324.773	1.38
325.145	1.34
325.518	1.3
325.891	1.23
326.264	1.34
326.636	1.25
327.009	1.28
327.382	1.32
327.754	1.35
328.127	1.25
328.499	1.29
328.872	1.31
329.244	1.29
329.616	1.23
329.989	1.31
330.361	1.38
330.733	1.29
331.106	1.26
331.478	1.36
331.85	1.34
332.222	1.31
332.594	1.35
332.966	1.34
333.338	1.33
333.71	1.44
334.082	1.37
334.454	1.37
334.826	1.31
335.197	1.33
335.569	1.25
335.941	1.29
336.312	1.35
336.684	1.31
337.056	1.36
337.427	1.42
337.799	1.42
338.17	1.31
338.542	1.28
338.913	1.37
339.284	1.49
339.656	1.36
340.027	1.45
340.398	1.43
340.769	1.33
341.141	1.49
341.512	1.37
341.883	1.39
342.254	1.3
342.625	1.41
342.996	1.33
343.367	1.39
343.738	1.38
344.108	1.37
344.479	1.42
344.85	1.4
345.221	1.37
345.591	1.29
345.962	1.35
346.333	1.31
346.703	1.18
347.074	1.2
347.444	1.27
347.815	1.25
348.185	1.36
348.556	1.22
348.926	1.33
349.296	1.31
349.666	1.22
350.037	1.21
350.407	1.32
350.777	1.25
351.147	1.37
351.517	1.28
351.887	1.24
352.257	1.38
352.627	1.3
352.997	1.21
353.367	1.32
353.737	1.4
354.106	1.34
354.476	1.38
354.846	1.38
355.216	1.42
355.585	1.44
355.955	1.35
356.324	1.4
356.694	1.36
357.063	1.43
357.433	1.35
357.802	1.39
358.171	1.39
358.541	1.41
358.91	1.51
359.279	1.65
359.648	1.38
360.017	1.56
360.387	1.5
360.756	1.32
361.125	1.38
361.494	1.53
361.863	1.35
362.231	1.44
362.6	1.41
362.969	1.48
363.338	1.34
363.707	1.63
364.075	1.51
364.444	1.38
364.813	1.4
365.181	1.44
365.55	1.46
365.918	1.47
366.287	1.38
366.655	1.45
367.024	1.46
367.392	1.62
367.76	1.38
368.128	1.53
368.497	1.49
368.865	1.42
369.233	1.38
369.601	1.47
369.969	1.56
370.337	1.46
370.705	1.55
371.073	1.58
371.441	1.49
371.809	1.37
372.177	1.47
372.544	1.46
372.912	1.46
373.28	1.47
373.647	1.58
374.015	1.58
374.383	1.82
374.75	1.67
375.118	1.6
375.485	1.53
375.853	1.62
376.22	1.48
376.587	1.59
376.955	1.46
377.322	1.53
377.689	1.5
378.056	1.34
378.423	1.56
378.79	1.54
379.157	1.61
379.524	1.59
379.891	1.47
380.258	1.69
380.625	1.6
380.992	1.5
381.359	1.73
381.726	1.72
382.092	1.49
382.459	1.57
382.826	1.56
383.192	1.56
383.559	1.44
383.925	1.62
384.292	1.62
384.658	1.69
385.025	1.63
385.391	1.8
385.757	1.64
386.123	1.47
386.49	1.58
386.856	1.64
387.222	1.61
387.588	1.61
387.954	1.78
388.32	1.6
388.686	1.67
389.052	1.53
389.418	1.73
389.784	1.56
390.15	1.69
390.515	1.42
390.881	1.66
391.247	1.36
391.613	1.67
391.978	1.48
392.344	1.66
392.709	1.64
393.075	1.59
393.44	1.55
393.806	1.74
394.171	1.64
394.536	1.58
394.902	1.62
395.267	1.51
395.632	1.53
395.997	1.39
396.362	1.39
396.727	1.46
397.092	1.5
397.457	1.51
397.822	1.56
398.187	1.55
398.552	1.54
398.917	1.61
399.282	1.45
399.646	1.63
400.011	1.58
400.376	1.44
400.74	1.4
401.105	1.54
401.47	1.68
401.834	1.45
402.199	1.49
402.563	1.55
402.927	1.44
403.292	1.61
403.656	1.45
404.02	1.46
404.384	1.74
404.749	1.56
405.113	1.71
405.477	1.7
405.841	1.5
406.205	1.49
406.569	1.48
406.933	1.5
407.296	1.48
407.66	1.51
408.024	1.56
408.388	1.57
408.752	1.57
409.115	1.57
409.479	1.5
409.842	1.45
410.206	1.37
410.569	1.48
410.933	1.42
411.296	1.37
411.66	1.47
412.023	1.31
412.386	1.33
412.749	1.33
413.113	1.49
413.476	1.27
413.839	1.51
414.202	1.33
414.565	1.38
414.928	1.45
415.291	1.34
415.654	1.34
416.017	1.56
416.38	1.4
416.742	1.44
417.105	1.38
417.468	1.29
417.83	1.37
418.193	1.5
418.556	1.38
418.918	1.42
419.281	1.43
419.643	1.46
420.005	1.35
420.368	1.41
420.73	1.31
421.092	1.43
421.455	1.39
421.817	1.31
422.179	1.43
422.541	1.33
422.903	1.38
423.265	1.45
423.627	1.41
423.989	1.38
424.351	1.38
424.713	1.36
425.075	1.3
425.436	1.36
425.798	1.33
426.16	1.4
426.521	1.32
426.883	1.46
427.245	1.34
427.606	1.3
427.967	1.35
428.329	1.28
428.69	1.31
429.052	1.28
429.413	1.41
429.774	1.37
430.135	1.35
430.497	1.33
430.858	1.34
431.219	1.34
431.58	1.28
431.941	1.34
432.302	1.31
432.663	1.32
433.024	1.34
433.384	1.31
433.745	1.25
434.106	1.32
434.467	1.3
434.827	1.28
435.188	1.24
435.548	1.34
435.909	1.33
436.269	1.3
436.63	1.25
436.99	1.24
437.351	1.18
437.711	1.23
438.071	1.22
438.431	1.24
438.792	1.22
439.152	1.22
439.512	1.19
439.872	1.19
440.232	1.27
440.592	1.23
440.952	1.2
441.312	1.15
441.671	1.23
442.031	1.18
442.391	1.22
442.751	1.2
443.11	1.17
443.47	1.11
443.83	1.13
444.189	1.17
444.549	1.14
444.908	1.1
445.267	1.12
445.627	1.12
445.986	1.1
446.345	1.1
446.705	1.1
447.064	1.09
447.423	1.1
447.782	1.1
448.141	1.07
448.5	1.02
448.859	1.04
449.218	1.04
449.577	1.07
449.936	1.07
450.295	1.04
450.653	1.03
451.012	1.03
451.371	1.03
451.729	1.02
452.088	1.02
452.447	1.01
452.805	0.99
453.163	0.99
453.522	0.98
453.88	0.96
454.239	0.95
454.597	0.95
454.955	0.93
455.313	0.93
455.671	0.94
456.029	0.92
456.388	0.91
456.746	0.9
457.104	0.9
457.461	0.86
457.819	0.86
458.177	0.85
458.535	0.85
458.893	0.83
459.25	0.84
459.608	0.84
459.966	0.81
460.323	0.79
460.681	0.78
461.038	0.78
461.396	0.77
461.753	0.77
462.111	0.76
462.468	0.73
462.825	0.73
463.182	0.71
463.54	0.71
463.897	0.72
464.254	0.7
464.611	0.7
464.968	0.68
465.325	0.68
465.682	0.67
466.039	0.66
466.395	0.65
466.752	0.64
467.109	0.63
467.466	0.62
467.822	0.62
468.179	0.6
468.535	0.6
468.892	0.58
469.248	0.56
469.605	0.56
469.961	0.55
470.318	0.56
470.674	0.56
471.03	0.55
471.386	0.55
471.743	0.53
472.099	0.52
472.455	0.5
472.811	0.5
473.167	0.5
473.523	0.48
473.879	0.48
474.235	0.48
474.59	0.46
474.946	0.46
475.302	0.46
475.657	0.44
476.013	0.44
476.369	0.42
476.724	0.43
477.08	0.44
477.435	0.42
477.791	0.41
478.146	0.41
478.501	0.4
478.857	0.4
479.212	0.39
479.567	0.38
479.922	0.37
480.277	0.38
480.632	0.37
480.987	0.36
481.342	0.36
481.697	0.35
482.052	0.34
482.407	0.34
482.762	0.34
483.116	0.33
483.471	0.32
483.826	0.32
484.18	0.32
484.535	0.3
484.89	0.31
485.244	0.3
485.598	0.31
485.953	0.3
486.307	0.29
486.661	0.29
487.016	0.29
487.37	0.29
487.724	0.28
488.078	0.28
488.432	0.28
488.786	0.27
489.14	0.26
489.494	0.27
489.848	0.26
490.202	0.26
490.556	0.25
490.91	0.26
491.263	0.25
491.617	0.24
491.971	0.25
492.324	0.24
492.678	0.24
493.031	0.24
493.385	0.23
493.738	0.23
494.091	0.23
494.445	0.24
494.798	0.23
495.151	0.22
495.504	0.22
495.857	0.21
496.21	0.21
496.564	0.21
496.916	0.21
497.269	0.21
497.622	0.21
497.975	0.2
498.328	0.22
498.681	0.21
499.033	0.21
499.386	0.2
499.739	0.2
500.091	0.2
500.444	0.2
500.796	0.2
501.149	0.19
501.501	0.19
501.854	0.19
502.206	0.19
502.558	0.19
502.91	0.18
503.263	0.19
503.615	0.18
503.967	0.19
504.319	0.19
504.671	0.19
505.023	0.17
505.375	0.17
505.726	0.18
506.078	0.18
506.43	0.17
506.782	0.17
507.133	0.17
507.485	0.17
507.837	0.17
508.188	0.18
508.54	0.18
508.891	0.18
509.243	0.17
509.594	0.16
509.945	0.16
510.296	0.16
510.648	0.17
510.999	0.16
511.35	0.17
511.701	0.17
512.052	0.17
512.403	0.17
512.754	0.17
513.105	0.17
513.456	0.17
513.807	0.16
514.157	0.17
514.508	0.17
514.859	0.15
515.209	0.17
515.56	0.16
515.91	0.16
516.261	0.17
516.611	0.16
516.962	0.16
517.312	0.16
517.662	0.16
518.013	0.16
518.363	0.17
518.713	0.16
519.063	0.16
519.413	0.16
519.763	0.16
520.113	0.16
520.463	0.16
520.813	0.17
521.163	0.16
521.512	0.16
521.862	0.16
522.212	0.16
522.562	0.16
522.911	0.16
523.261	0.16
523.61	0.16
523.96	0.16
524.309	0.17
524.658	0.16
525.008	0.16
525.357	0.16
525.706	0.16
526.056	0.16
526.405	0.16
526.754	0.16
527.103	0.15
527.452	0.16
527.801	0.16
528.15	0.16
528.499	0.16
528.847	0.16
529.196	0.17
529.545	0.16
529.893	0.17
530.242	0.16
530.591	0.16
530.939	0.18
531.288	0.17
531.636	0.17
531.985	0.16
532.333	0.17
532.681	0.17
533.029	0.17
533.378	0.17
533.726	0.17
534.074	0.17
534.422	0.16
534.77	0.17
535.118	0.17
535.466	0.17
535.814	0.17
536.162	0.17
536.509	0.17
536.857	0.17
537.205	0.17
537.552	0.17
537.9	0.17
538.248	0.17
538.595	0.17
538.943	0.18
539.29	0.17
539.637	0.17
539.985	0.17
540.332	0.17
540.679	0.17
541.026	0.16
541.373	0.17
541.721	0.16
542.068	0.16
542.415	0.16
542.762	0.16
543.108	0.16
543.455	0.15
543.802	0.16
544.149	0.16
544.496	0.16
544.842	0.15
545.189	0.15
545.535	0.15
545.882	0.16
546.228	0.15
546.575	0.16
546.921	0.15
547.267	0.16
547.614	0.16
547.96	0.16
548.306	0.15
548.652	0.15
548.998	0.16
549.344	0.16
549.69	0.16
550.036	0.16
550.382	0.16
550.728	0.16
551.074	0.17
551.42	0.16
551.765	0.16
552.111	0.17
552.457	0.17
552.802	0.17
553.148	0.16
553.493	0.17
553.839	0.16
554.184	0.17
554.529	0.16
554.875	0.17
555.22	0.18
555.565	0.18
555.91	0.17
556.255	0.18
556.6	0.17
556.945	0.16
557.29	0.17
557.635	0.18
557.98	0.17
558.325	0.16
558.67	0.18
559.014	0.17
559.359	0.17
559.704	0.17
560.048	0.16
560.393	0.17
560.737	0.16
561.082	0.17
561.426	0.16
561.77	0.16
562.115	0.16
562.459	0.16
562.803	0.16
563.147	0.16
563.491	0.16
563.835	0.17
564.179	0.16
564.523	0.17
564.867	0.16
565.211	0.17
565.555	0.16
565.899	0.17
566.242	0.17
566.586	0.16
566.93	0.16
567.273	0.17
567.617	0.16
567.96	0.17
568.304	0.17
568.647	0.17
568.99	0.17
569.334	0.17
569.677	0.16
570.02	0.18
570.363	0.17
570.706	0.17
571.049	0.16
571.392	0.17
571.735	0.16
572.078	0.16
572.421	0.17
572.764	0.17
573.106	0.16
573.449	0.16
573.792	0.16
574.134	0.16
574.477	0.17
574.819	0.16
575.162	0.16
575.504	0.17
575.847	0.17
576.189	0.17
576.531	0.16
576.873	0.16
577.215	0.16
577.558	0.17
577.9	0.16
578.242	0.16
578.584	0.17
578.926	0.17
579.267	0.17
579.609	0.17
579.951	0.16
580.293	0.17
580.634	0.18
580.976	0.17
581.318	0.16
581.659	0.16
582.001	0.17
582.342	0.16
582.683	0.17
583.025	0.16
583.366	0.16
583.707	0.17
584.049	0.16
584.39	0.16
584.731	0.17
585.072	0.16
585.413	0.17
585.754	0.16
586.095	0.17
586.435	0.17
586.776	0.16
587.117	0.16
587.458	0.16
587.798	0.16
588.139	0.16
588.48	0.16
588.82	0.16
589.161	0.16
589.501	0.17
589.841	0.16
590.182	0.16
590.522	0.16
590.862	0.16
591.202	0.16
591.542	0.16
591.882	0.15
592.222	0.16
592.562	0.16
592.902	0.17
593.242	0.16
593.582	0.16
593.922	0.16
594.261	0.17
594.601	0.16
594.941	0.16
595.28	0.16
595.62	0.16
595.959	0.15
596.299	0.16
596.638	0.16
596.977	0.16
597.317	0.17
597.656	0.16
597.995	0.16
598.334	0.17
598.673	0.16
599.012	0.16
599.351	0.17
599.69	0.16
600.029	0.16
600.368	0.16
600.707	0.16
601.046	0.16
601.384	0.17
601.723	0.16
602.061	0.16
602.4	0.16
602.738	0.16
603.077	0.16
603.415	0.16
603.754	0.16
604.092	0.17
604.43	0.16
604.768	0.17
605.107	0.17
605.445	0.15
605.783	0.16
606.121	0.16
606.459	0.16
606.796	0.16
607.134	0.16
607.472	0.15
607.81	0.16
608.148	0.15
608.485	0.16
608.823	0.16
609.16	0.15
609.498	0.15
609.835	0.15
610.173	0.16
610.51	0.16
610.847	0.16
611.185	0.17
611.522	0.16
611.859	0.16
612.196	0.16
612.533	0.17
612.87	0.17
613.207	0.17
613.544	0.16
613.881	0.17
614.217	0.16
614.554	0.16
614.891	0.16
615.228	0.16
615.564	0.16
615.901	0.16
616.237	0.16
616.574	0.16
616.91	0.17
617.246	0.16
617.583	0.16
617.919	0.17
618.255	0.17
618.591	0.17
618.927	0.17
619.263	0.17
619.599	0.17
619.935	0.16
620.271	0.17
620.607	0.17
620.943	0.16
621.279	0.17
621.614	0.16
621.95	0.16
622.286	0.16
622.621	0.15
622.957	0.15
623.292	0.15
623.627	0.15
623.963	0.15
624.298	0.15
624.633	0.15
624.968	0.15
625.304	0.15
625.639	0.15
625.974	0.15
626.309	0.15
626.644	0.15
626.979	0.15
627.313	0.15
627.648	0.15
627.983	0.15
628.318	0.14
628.652	0.14
628.987	0.15
629.321	0.15
629.656	0.14
629.99	0.14
630.325	0.15
630.659	0.14
630.993	0.14
631.327	0.14
631.662	0.14
631.996	0.14
632.33	0.14
632.664	0.14
632.998	0.14
633.332	0.14
633.666	0.14
633.999	0.14
634.333	0.14
634.667	0.14
635.001	0.14
635.334	0.14
635.668	0.14
636.001	0.14
636.335	0.14
636.668	0.14
637.001	0.13
637.335	0.14
637.668	0.13
638.001	0.13
638.334	0.13
638.668	0.14
639.001	0.13
639.334	0.13
639.667	0.12
639.999	0.13
640.332	0.13
640.665	0.12
640.998	0.13
641.331	0.13
641.663	0.12
641.996	0.13
642.328	0.13
642.661	0.13
642.993	0.13
643.326	0.13
643.658	0.13
643.99	0.13
644.323	0.12
644.655	0.12
644.987	0.12
645.319	0.13
645.651	0.12
645.983	0.13
646.315	0.12
646.647	0.12
646.979	0.14
647.31	0.13
647.642	0.13
647.974	0.13
648.305	0.13
648.637	0.13
648.968	0.13
649.3	0.13
649.631	0.14
649.963	0.13
650.294	0.13
650.625	0.13
650.957	0.14
651.288	0.14
651.619	0.14
651.95	0.14
652.281	0.13
652.612	0.14
652.943	0.14
653.274	0.13
653.604	0.13
653.935	0.14
654.266	0.13
654.596	0.13
654.927	0.13
655.258	0.14
655.588	0.13
655.918	0.14
656.249	0.12
656.579	0.13
656.909	0.13
657.24	0.13
657.57	0.13
657.9	0.13
658.23	0.13
658.56	0.14
658.89	0.14
659.22	0.13
659.55	0.14
659.88	0.13
660.209	0.14
660.539	0.15
660.869	0.14
661.198	0.14
661.528	0.14
661.857	0.13
662.187	0.14
662.516	0.13
662.846	0.13
663.175	0.14
663.504	0.13
663.833	0.13
664.163	0.13
664.492	0.13
664.821	0.13
665.15	0.13
665.479	0.13
665.807	0.12
666.136	0.13
666.465	0.12
666.794	0.12
667.122	0.12
667.451	0.12
667.78	0.12
668.108	0.12
668.437	0.12
668.765	0.12
669.093	0.12
669.422	0.12
669.75	0.12
670.078	0.12
670.406	0.12
670.734	0.12
671.062	0.12
671.39	0.12
671.718	0.12
672.046	0.13
672.374	0.12
672.702	0.12
673.029	0.12
673.357	0.12
673.685	0.13
674.012	0.12
674.34	0.13
674.667	0.13
674.995	0.13
675.322	0.13
675.649	0.12
675.977	0.12
676.304	0.12
676.631	0.12
676.958	0.12
677.285	0.12
677.612	0.12
677.939	0.12
678.266	0.12
678.593	0.12
678.92	0.12
679.246	0.12
679.573	0.12
679.9	0.11
680.226	0.12
680.553	0.11
680.879	0.11
681.206	0.11
681.532	0.11
681.858	0.11
682.184	0.11
682.511	0.11
682.837	0.1
683.163	0.11
683.489	0.11
683.815	0.1
684.141	0.1
684.467	0.11
684.793	0.1
685.118	0.11
685.444	0.11
685.77	0.1
686.095	0.11
686.421	0.11
686.746	0.11
687.072	0.11
687.397	0.1
687.723	0.12
688.048	0.12
688.373	0.11
688.698	0.11
689.023	0.11
689.349	0.12
689.674	0.12
689.999	0.11
690.323	0.1
690.648	0.1
690.973	0.1
691.298	0.11
691.623	0.1
691.947	0.11
692.272	0.1
692.596	0.1
692.921	0.1
693.245	0.1
693.57	0.11
693.894	0.1
694.218	0.1
694.543	0.1
694.867	0.09
695.191	0.09
695.515	0.1
695.839	0.1
696.163	0.1
696.487	0.1
696.811	0.09
697.135	0.1
697.458	0.1
697.782	0.1
698.106	0.1
698.429	0.1
698.753	0.09
699.076	0.1
699.4	0.1
699.723	0.1
700.046	0.09
700.37	0.1
700.693	0.1
701.016	0.1
701.339	0.1
701.662	0.1
701.985	0.1
702.308	0.09
702.631	0.1
702.954	0.1
703.277	0.11
703.599	0.1
703.922	0.09
704.245	0.09
704.567	0.08
704.89	0.09
705.212	0.09
705.535	0.08
705.857	0.08
706.179	0.09
706.502	0.08
706.824	0.08
707.146	0.08
707.468	0.09
707.79	0.08
708.112	0.09
708.434	0.09
708.756	0.09
709.078	0.09
709.399	0.08
709.721	0.09
710.043	0.09
710.364	0.09
710.686	0.09
711.007	0.09
711.329	0.09
711.65	0.09
711.972	0.09
712.293	0.09
712.614	0.1
712.935	0.09
713.256	0.09
713.577	0.09
713.898	0.09
714.219	0.08
714.54	0.08
714.861	0.08
715.182	0.09
715.503	0.09
715.823	0.08
716.144	0.08
716.464	0.07
716.785	0.07
717.105	0.07
717.426	0.09
717.746	0.08
718.066	0.07
718.387	0.08
718.707	0.07
719.027	0.07
719.347	0.06
719.667	0.08
719.987	0.07
720.307	0.07
720.627	0.07
720.947	0.08
721.266	0.07
721.586	0.06
721.906	0.07
722.225	0.07
722.545	0.07
722.864	0.06
723.184	0.07
723.503	0.06
723.823	0.07
724.142	0.06
724.461	0.06
724.78	0.06
725.099	0.07
725.418	0.07
725.737	0.05
726.056	0.07
726.375	0.07
726.694	0.07
727.013	0.07
727.331	0.06
727.65	0.06
727.969	0.07
728.287	0.07
728.606	0.07
728.924	0.06
729.242	0.07
729.561	0.06
729.879	0.07
730.197	0.07
730.515	0.07
730.834	0.06
731.152	0.06
731.47	0.06
731.788	0.06
732.105	0.06
732.423	0.07
732.741	0.06
733.059	0.06
733.376	0.07
733.694	0.06
734.012	0.06
734.329	0.07
734.647	0.06
734.964	0.07
735.281	0.06
735.599	0.07
735.916	0.08
736.233	0.06
736.55	0.06
736.867	0.07
737.184	0.07
737.501	0.06
737.818	0.07
738.135	0.07
738.452	0.07
738.768	0.07
739.085	0.07
739.402	0.05
739.718	0.07
740.035	0.06
740.351	0.07
740.668	0.07
740.984	0.06
741.3	0.07
741.617	0.07
741.933	0.07
742.249	0.07
742.565	0.07
742.881	0.07
743.197	0.07
743.513	0.06
743.829	0.06
744.144	0.06
744.46	0.07
744.776	0.07
745.091	0.06
745.407	0.07
745.722	0.06
746.038	0.06
746.353	0.06
746.669	0.06
746.984	0.06
747.299	0.07
747.614	0.07
747.93	0.07
748.245	0.06
748.56	0.06
748.875	0.07
749.189	0.06
749.504	0.07
749.819	0.07
750.134	0.06
750.448	0.07
750.763	0.06
751.078	0.06
751.392	0.06
751.707	0.08
752.021	0.07
752.335	0.07
752.65	0.07
752.964	0.06
753.278	0.06
753.592	0.06
753.906	0.06
754.22	0.06
754.534	0.07
754.848	0.06
755.162	0.07
755.476	0.06
755.789	0.06
756.103	0.06
756.417	0.07
756.73	0.07
757.044	0.06
757.357	0.07
757.671	0.07
757.984	0.07
758.297	0.07
758.61	0.07
758.924	0.07
759.237	0.06
759.55	0.07
759.863	0.06
760.176	0.06
760.488	0.06
760.801	0.06
761.114	0.06
761.427	0.07
761.739	0.07
762.052	0.05
762.365	0.06
762.677	0.06
762.99	0.05
763.302	0.06
763.614	0.06
763.926	0.06
764.239	0.06
764.551	0.05
764.863	0.06
765.175	0.06
765.487	0.06
765.799	0.05
766.111	0.05
766.423	0.06
766.734	0.06
767.046	0.05
767.358	0.06
767.669	0.06
767.981	0.06
768.292	0.05
768.604	0.06
768.915	0.05
769.226	0.06
769.537	0.05
769.849	0.05
770.16	0.05
770.471	0.05
770.782	0.06
771.093	0.06
771.404	0.04
771.715	0.05
772.025	0.04
772.336	0.05
772.647	0.04
772.957	0.05
773.268	0.05
773.578	0.04
773.889	0.05
774.199	0.05
774.51	0.05
774.82	0.05
775.13	0.05
775.44	0.05
775.75	0.05
776.06	0.05
776.37	0.05
776.68	0.06
776.99	0.05
777.3	0.04
777.61	0.05
777.92	0.05
778.229	0.04
778.539	0.05
778.848	0.05
779.158	0.05
779.467	0.06
779.777	0.05
780.086	0.07
780.395	0.04
780.704	0.05
781.013	0.04
781.323	0.05
781.632	0.05
781.941	0.05
782.249	0.05
782.558	0.05
782.867	0.04
783.176	0.04
783.485	0.04
783.793	0.05
784.102	0.05
784.41	0.05
784.719	0.04
785.027	0.04
785.335	0.05
785.644	0.04
785.952	0.04
786.26	0.05
786.568	0.04
786.876	0.03
787.184	0.05
787.492	0.04
787.8	0.04
788.108	0.05
788.416	0.04
788.723	0.04
789.031	0.04
789.338	0.04
789.646	0.04
789.953	0.05
790.261	0.04
790.568	0.05
790.876	0.05
791.183	0.04
791.49	0.04
791.797	0.05
792.104	0.05
792.411	0.04
792.718	0.04
793.025	0.05
793.332	0.04
793.639	0.05
793.945	0.05
794.252	0.05
794.559	0.05
794.865	0.05
795.172	0.06
795.478	0.05
795.784	0.06
796.091	0.06
796.397	0.07
796.703	0.06
797.009	0.07
797.315	0.06
797.622	0.06
797.927	0.05
798.233	0.05
798.539	0.06
798.845	0.06
799.151	0.05
799.456	0.06
799.762	0.05
800.068	0.05
800.373	0.06
800.679	0.04
800.984	0.05
801.289	0.05
801.595	0.05
801.9	0.05
802.205	0.05
802.51	0.06
802.815	0.05
803.12	0.05
803.425	0.05
803.73	0.05
804.035	0.05
804.339	0.04
804.644	0.04
804.949	0.05
805.253	0.05
805.558	0.05
805.862	0.05
806.167	0.05
806.471	0.05
806.775	0.05
807.08	0.05
807.384	0.04
807.688	0.06
807.992	0.05
808.296	0.04
808.6	0.05
808.904	0.06
809.207	0.05
809.511	0.06
809.815	0.07
810.119	0.05
810.422	0.05
810.726	0.07
811.029	0.07
811.332	0.05
811.636	0.06
811.939	0.06
812.242	0.05
812.546	0.06
812.849	0.05
813.152	0.05
813.455	0.06
813.758	0.06
814.06	0.06
814.363	0.05
814.666	0.06
814.969	0.06
815.271	0.06
815.574	0.05
815.877	0.06
816.179	0.05
816.481	0.05
816.784	0.05
817.086	0.05
817.388	0.04
817.69	0.05
817.993	0.04
818.295	0.05
818.597	0.04
818.899	0.04
819.2	0.04
819.502	0.03
819.804	0.04
820.106	0.04
820.407	0.03
820.709	0.04
821.01	0.04
821.312	0.04
821.613	0.04
821.915	0.04
822.216	0.04
822.517	0.03
822.818	0.04
823.119	0.04
823.42	0.04
823.721	0.03
824.022	0.03
824.323	0.04
824.624	0.04
824.925	0.04
825.226	0.04
825.526	0.05
825.827	0.04
826.127	0.05
826.428	0.04
826.728	0.03
827.028	0.04
827.329	0.04
827.629	0.03
827.929	0.03
828.229	0.04
828.529	0.04
828.829	0.04
829.129	0.04
829.429	0.04
829.729	0.04
830.029	0.03
830.328	0.04
830.628	0.03
830.927	0.02
831.227	0.03
831.526	0.03
831.826	0.03
832.125	0.03
832.424	0.03
832.724	0.03
833.023	0.03
833.322	0.03
833.621	0.03
833.92	0.03
834.219	0.02
834.518	0.02
834.816	0.01
835.115	0.02
835.414	0.02
835.712	0.01
836.011	0.02
836.309	0.02
836.608	0.02
836.906	0.02
837.205	0.01
837.503	0.01
837.801	0.01
838.099	0.01
838.397	-0
838.695	0
838.993	0.01
839.291	-0
839.589	0
839.887	0
840.184	-0
840.482	-0
840.78	0
841.077	-0
841.375	-0.01
841.672	-0.01
841.969	-0.02
842.267	-0.01
842.564	-0.01
842.861	-0.01
843.158	-0.02
843.455	-0.03
843.752	-0.03
844.049	-0.03
844.346	-0.03
844.643	-0.04
844.94	-0.04
845.236	-0.02
845.533	-0.03
845.83	-0.04
846.126	-0.04
846.423	-0.04
846.719	-0.05
847.015	-0.04
847.312	-0.05
847.608	-0.05
847.904	-0.05
848.2	-0.05
848.496	-0.06
848.792	-0.05
849.088	-0.05
849.384	-0.05
849.68	-0.06
849.975	-0.06
850.271	-0.06
850.567	-0.06
850.862	-0.06
851.158	-0.06
851.453	-0.06
851.748	-0.07
852.044	-0.06
852.339	-0.06
852.634	-0.08
852.929	-0.05
853.224	-0.07
853.519	-0.07
853.814	-0.07
854.109	-0.07
854.404	-0.07
854.699	-0.08
854.994	-0.07
855.288	-0.06
855.583	-0.07
855.877	-0.09
856.172	-0.07
856.466	-0.09
856.76	-0.08
857.055	-0.08
857.349	-0.09
857.643	-0.09
857.937	-0.1
858.231	-0.1
858.525	-0.1
858.819	-0.08
859.113	-0.11
859.407	-0.1
859.701	-0.1
859.994	-0.11
860.288	-0.1
860.581	-0.11
860.875	-0.11
861.168	-0.1
861.462	-0.11
861.755	-0.11
862.048	-0.11
862.341	-0.11
862.634	-0.12
862.928	-0.1
863.221	-0.11
863.513	-0.11
863.806	-0.12
864.099	-0.13
864.392	-0.12
864.685	-0.11
864.977	-0.13
865.27	-0.12
865.562	-0.12
865.855	-0.12
866.147	-0.13
866.44	-0.12
866.732	-0.12
867.024	-0.13
867.316	-0.13
867.608	-0.13
867.9	-0.12
868.192	-0.13
868.484	-0.13
868.776	-0.14
869.068	-0.14
869.359	-0.13
869.651	-0.14
869.943	-0.15
870.234	-0.15
870.526	-0.15
870.817	-0.15
871.108	-0.14
871.4	-0.15
871.691	-0.16
871.982	-0.16
872.273	-0.17
872.564	-0.16
872.855	-0.16
873.146	-0.17
873.437	-0.16
873.728	-0.18
874.019	-0.16
874.309	-0.18
874.6	-0.17
874.89	-0.17
875.181	-0.17
875.471	-0.16
875.762	-0.17
876.052	-0.17
876.342	-0.15
876.632	-0.18
876.922	-0.18
877.213	-0.17
877.503	-0.18
877.792	-0.17
878.082	-0.17
878.372	-0.16
878.662	-0.19
878.952	-0.18
879.241	-0.17
879.531	-0.17
879.82	-0.18
880.11	-0.17
880.399	-0.18
880.688	-0.17
880.978	-0.17
881.267	-0.17
