Data from 12-12-AQDScycling_Absorbance__274__00274.txt Node

Date: Tue Dec 12 12:05:14 EST 2023
User: kyuminlee
Spectrometer: FLMS00943
Trigger mode: 0
Integration Time (sec): 1.000000E-1
Scans to average: 1
Electric dark correction enabled: true
Nonlinearity correction enabled: false
Boxcar width: 0
XAxis mode: Wavelengths
Number of Pixels in Spectrum: 2048
>>>>>Begin Spectral Data<<<<<
179.651	0.13
180.037	0.13
180.424	0.13
180.81	-0.07
181.197	0.31
181.583	-0
181.97	0.04
182.356	-0
182.743	-0
183.129	0.14
183.515	1.09
183.901	-2.35
184.288	0.43
184.674	-0
185.06	-0.73
185.446	-0
185.832	-0.32
186.218	0.04
186.604	0.83
186.99	0.31
187.376	-0
187.762	-0.11
188.148	0.5
188.534	0.26
188.92	0.13
189.305	0.05
189.691	0.19
190.077	0.12
190.463	0.05
190.848	0.07
191.234	0.03
191.619	0.12
192.005	0.2
192.391	0.1
192.776	0.13
193.161	0.15
193.547	0.17
193.932	0.09
194.318	0.05
194.703	0.08
195.088	0.1
195.473	0.22
195.859	0.23
196.244	0.25
196.629	0.05
197.014	0.21
197.399	0.14
197.784	0.25
198.169	0.24
198.554	0.2
198.939	0.15
199.324	0.22
199.709	0.01
200.094	0.12
200.478	0.01
200.863	0.26
201.248	0.04
201.633	0.27
202.017	0.08
202.402	0.28
202.787	0.26
203.171	0.05
203.556	0.19
203.94	0.13
204.325	0.21
204.709	0.08
205.093	0.07
205.478	0.21
205.862	0.19
206.246	0.1
206.631	0.13
207.015	0.16
207.399	0.17
207.783	0.25
208.167	0.26
208.551	0.21
208.935	0.2
209.319	0.12
209.703	0.12
210.087	0.17
210.471	0.05
210.855	0.14
211.239	0.29
211.623	0.25
212.007	0.28
212.39	0.17
212.774	0.27
213.158	0.15
213.541	0.18
213.925	0.18
214.309	0.45
214.692	0.67
215.076	0.17
215.459	0.13
215.842	0.09
216.226	0.32
216.609	0.38
216.993	0.15
217.376	0.67
217.759	0.19
218.142	0.32
218.525	0.44
218.909	0.44
219.292	0.25
219.675	0.64
220.058	0.41
220.441	0.6
220.824	0.46
221.207	0.51
221.59	0.42
221.973	0.49
222.355	0.61
222.738	0.59
223.121	0.49
223.504	0.53
223.886	0.76
224.269	0.68
224.652	0.6
225.034	0.75
225.417	0.73
225.799	0.83
226.182	0.79
226.564	0.94
226.947	0.83
227.329	0.82
227.711	0.96
228.094	1.05
228.476	1.01
228.858	0.82
229.24	0.81
229.623	1.03
230.005	0.89
230.387	0.81
230.769	0.85
231.151	1.03
231.533	0.94
231.915	0.96
232.297	1.1
232.679	0.99
233.061	0.99
233.442	1.11
233.824	1.13
234.206	1.14
234.588	0.99
234.969	1
235.351	1.18
235.733	1.17
236.114	1.15
236.496	1.07
236.877	1.32
237.259	1.11
237.64	1.1
238.022	1.05
238.403	1.06
238.784	1.11
239.165	0.99
239.547	1.04
239.928	1.01
240.309	1.18
240.69	1.08
241.071	1.09
241.452	1.14
241.834	1.02
242.215	0.99
242.595	1.17
242.976	1.11
243.357	1.18
243.738	1.1
244.119	1.33
244.5	1.09
244.881	1.39
245.261	1.15
245.642	1.21
246.023	1.17
246.403	1.19
246.784	1.22
247.164	1.27
247.545	1.41
247.925	1.31
248.306	1.29
248.686	1.45
249.067	1.29
249.447	1.4
249.827	1.48
250.207	1.42
250.588	1.26
250.968	1.57
251.348	1.32
251.728	1.33
252.108	1.42
252.488	1.51
252.868	1.37
253.248	1.23
253.628	1.38
254.008	1.67
254.388	1.46
254.768	1.32
255.147	1.35
255.527	1.39
255.907	1.33
256.287	1.49
256.666	1.71
257.046	1.69
257.425	1.54
257.805	1.36
258.184	1.43
258.564	1.34
258.943	1.48
259.323	1.44
259.702	1.55
260.081	1.52
260.461	1.5
260.84	1.44
261.219	1.63
261.598	1.6
261.977	1.53
262.356	1.5
262.736	1.5
263.115	1.65
263.494	1.44
263.873	1.32
264.251	1.51
264.63	1.47
265.009	1.42
265.388	1.51
265.767	1.53
266.145	1.38
266.524	1.44
266.903	1.42
267.281	1.5
267.66	1.5
268.039	1.49
268.417	1.38
268.796	1.39
269.174	1.58
269.552	1.4
269.931	1.61
270.309	1.5
270.687	1.41
271.066	1.56
271.444	1.36
271.822	1.67
272.2	1.48
272.578	1.4
272.956	1.39
273.334	1.59
273.712	1.39
274.09	1.44
274.468	1.35
274.846	1.32
275.224	1.48
275.602	1.45
275.98	1.48
276.357	1.44
276.735	1.42
277.113	1.44
277.49	1.27
277.868	1.32
278.246	1.39
278.623	1.35
279.001	1.36
279.378	1.37
279.756	1.53
280.133	1.87
280.51	1.38
280.888	1.55
281.265	1.28
281.642	1.49
282.019	1.41
282.396	1.75
282.773	1.67
283.151	1.48
283.528	1.53
283.905	1.36
284.282	1.52
284.659	1.59
285.035	1.39
285.412	1.36
285.789	1.44
286.166	1.42
286.543	1.41
286.919	1.45
287.296	1.41
287.673	1.7
288.049	1.53
288.426	1.6
288.802	1.51
289.179	1.52
289.555	1.77
289.932	1.47
290.308	1.43
290.684	1.44
291.061	1.45
291.437	1.51
291.813	1.32
292.189	1.25
292.565	1.35
292.942	1.34
293.318	1.36
293.694	1.48
294.07	1.3
294.446	1.41
294.822	1.69
295.197	1.61
295.573	1.34
295.949	1.55
296.325	1.49
296.701	1.56
297.076	1.59
297.452	1.46
297.828	1.44
298.203	1.77
298.579	1.48
298.954	1.53
299.33	1.46
299.705	1.51
300.081	1.42
300.456	1.48
300.831	1.42
301.206	1.46
301.582	1.49
301.957	1.48
302.332	1.58
302.707	1.37
303.082	1.49
303.457	1.42
303.832	1.55
304.207	1.37
304.582	1.45
304.957	1.47
305.332	1.43
305.707	1.46
306.082	1.6
306.456	1.66
306.831	1.46
307.206	1.5
307.58	1.41
307.955	1.39
308.33	1.35
308.704	1.46
309.079	1.44
309.453	1.57
309.828	1.56
310.202	1.42
310.576	1.47
310.951	1.56
311.325	1.58
311.699	1.47
312.073	1.39
312.447	1.52
312.821	1.39
313.196	1.57
313.57	1.36
313.944	1.5
314.317	1.39
314.691	1.39
315.065	1.37
315.439	1.62
315.813	1.49
316.187	1.42
316.56	1.62
316.934	1.58
317.308	1.37
317.681	1.49
318.055	1.41
318.428	1.53
318.802	1.58
319.175	1.53
319.549	1.45
319.922	1.45
320.295	1.4
320.669	1.68
321.042	1.45
321.415	1.56
321.788	1.5
322.162	1.59
322.535	1.53
322.908	1.39
323.281	1.41
323.654	1.53
324.027	1.44
324.4	1.66
324.773	1.53
325.145	1.69
325.518	1.45
325.891	1.43
326.264	1.58
326.636	1.36
327.009	1.5
327.382	1.38
327.754	1.52
328.127	1.41
328.499	1.49
328.872	1.41
329.244	1.57
329.616	1.45
329.989	1.38
330.361	1.49
330.733	1.47
331.106	1.41
331.478	1.58
331.85	1.43
332.222	1.42
332.594	1.53
332.966	1.57
333.338	1.79
333.71	1.52
334.082	1.7
334.454	1.42
334.826	1.5
335.197	1.58
335.569	1.56
335.941	1.4
336.312	1.52
336.684	1.47
337.056	1.59
337.427	1.59
337.799	1.53
338.17	1.49
338.542	1.5
338.913	1.44
339.284	1.56
339.656	1.45
340.027	1.59
340.398	1.53
340.769	1.52
341.141	1.59
341.512	1.55
341.883	1.46
342.254	1.55
342.625	1.68
342.996	1.52
343.367	1.52
343.738	1.44
344.108	1.41
344.479	1.65
344.85	1.44
345.221	1.56
345.591	1.48
345.962	1.44
346.333	1.44
346.703	1.32
347.074	1.35
347.444	1.38
347.815	1.39
348.185	1.45
348.556	1.27
348.926	1.34
349.296	1.4
349.666	1.31
350.037	1.21
350.407	1.22
350.777	1.3
351.147	1.34
351.517	1.39
351.887	1.37
352.257	1.54
352.627	1.35
352.997	1.32
353.367	1.5
353.737	1.36
354.106	1.32
354.476	1.28
354.846	1.38
355.216	1.37
355.585	1.41
355.955	1.33
356.324	1.44
356.694	1.32
357.063	1.31
357.433	1.27
357.802	1.32
358.171	1.38
358.541	1.33
358.91	1.31
359.279	1.37
359.648	1.29
360.017	1.35
360.387	1.31
360.756	1.23
361.125	1.35
361.494	1.35
361.863	1.24
362.231	1.26
362.6	1.27
362.969	1.25
363.338	1.17
363.707	1.24
364.075	1.3
364.444	1.18
364.813	1.19
365.181	1.27
365.55	1.2
365.918	1.24
366.287	1.23
366.655	1.28
367.024	1.2
367.392	1.25
367.76	1.18
368.128	1.21
368.497	1.21
368.865	1.23
369.233	1.25
369.601	1.15
369.969	1.13
370.337	1.21
370.705	1.24
371.073	1.25
371.441	1.22
371.809	1.24
372.177	1.2
372.544	1.21
372.912	1.18
373.28	1.22
373.647	1.29
374.015	1.26
374.383	1.34
374.75	1.3
375.118	1.24
375.485	1.25
375.853	1.2
376.22	1.19
376.587	1.28
376.955	1.32
377.322	1.23
377.689	1.3
378.056	1.18
378.423	1.28
378.79	1.31
379.157	1.27
379.524	1.28
379.891	1.2
380.258	1.25
380.625	1.22
380.992	1.28
381.359	1.29
381.726	1.4
382.092	1.29
382.459	1.3
382.826	1.24
383.192	1.27
383.559	1.33
383.925	1.34
384.292	1.31
384.658	1.39
385.025	1.43
385.391	1.36
385.757	1.39
386.123	1.35
386.49	1.36
386.856	1.47
387.222	1.43
387.588	1.38
387.954	1.41
388.32	1.49
388.686	1.44
389.052	1.35
389.418	1.41
389.784	1.36
390.15	1.43
390.515	1.29
390.881	1.49
391.247	1.3
391.613	1.58
391.978	1.29
392.344	1.46
392.709	1.48
393.075	1.4
393.44	1.43
393.806	1.45
394.171	1.33
394.536	1.37
394.902	1.4
395.267	1.41
395.632	1.33
395.997	1.37
396.362	1.37
396.727	1.42
397.092	1.31
397.457	1.33
397.822	1.33
398.187	1.37
398.552	1.3
398.917	1.43
399.282	1.32
399.646	1.29
400.011	1.42
400.376	1.31
400.74	1.27
401.105	1.36
401.47	1.35
401.834	1.2
402.199	1.27
402.563	1.34
402.927	1.25
403.292	1.31
403.656	1.29
404.02	1.25
404.384	1.36
404.749	1.26
405.113	1.29
405.477	1.27
405.841	1.25
406.205	1.23
406.569	1.15
406.933	1.18
407.296	1.23
407.66	1.22
408.024	1.17
408.388	1.29
408.752	1.16
409.115	1.17
409.479	1.15
409.842	1.13
410.206	1.09
410.569	1.1
410.933	1.19
411.296	1.11
411.66	1.11
412.023	1.07
412.386	1.06
412.749	1.08
413.113	1.1
413.476	1.06
413.839	1.07
414.202	1.08
414.565	0.98
414.928	1.06
415.291	1
415.654	1.06
416.017	1.06
416.38	0.98
416.742	0.98
417.105	1.02
417.468	1.05
417.83	1.01
418.193	1.08
418.556	1
418.918	1.03
419.281	1.03
419.643	1.04
420.005	0.96
420.368	1.01
420.73	0.97
421.092	0.98
421.455	1.08
421.817	0.95
422.179	0.95
422.541	1.01
422.903	1.03
423.265	1.01
423.627	0.98
423.989	0.98
424.351	0.99
424.713	0.98
425.075	0.96
425.436	0.96
425.798	0.99
426.16	0.94
426.521	0.95
426.883	0.94
427.245	0.95
427.606	0.95
427.967	0.91
428.329	0.94
428.69	0.97
429.052	0.9
429.413	0.95
429.774	0.94
430.135	0.96
430.497	0.94
430.858	0.92
431.219	0.93
431.58	0.9
431.941	0.93
432.302	0.93
432.663	0.9
433.024	0.94
433.384	0.92
433.745	0.88
434.106	0.93
434.467	0.89
434.827	0.9
435.188	0.87
435.548	0.91
435.909	0.87
436.269	0.9
436.63	0.87
436.99	0.87
437.351	0.82
437.711	0.84
438.071	0.85
438.431	0.84
438.792	0.82
439.152	0.81
439.512	0.85
439.872	0.84
440.232	0.84
440.592	0.86
440.952	0.82
441.312	0.82
441.671	0.79
442.031	0.82
442.391	0.8
442.751	0.81
443.11	0.81
443.47	0.78
443.83	0.78
444.189	0.79
444.549	0.79
444.908	0.77
445.267	0.76
445.627	0.77
445.986	0.77
446.345	0.74
446.705	0.76
447.064	0.74
447.423	0.75
447.782	0.75
448.141	0.74
448.5	0.7
448.859	0.73
449.218	0.72
449.577	0.72
449.936	0.74
450.295	0.7
450.653	0.72
451.012	0.7
451.371	0.72
451.729	0.69
452.088	0.69
452.447	0.69
452.805	0.69
453.163	0.69
453.522	0.69
453.88	0.67
454.239	0.67
454.597	0.67
454.955	0.65
455.313	0.64
455.671	0.64
456.029	0.64
456.388	0.63
456.746	0.63
457.104	0.62
457.461	0.61
457.819	0.61
458.177	0.59
458.535	0.6
458.893	0.58
459.25	0.58
459.608	0.58
459.966	0.56
460.323	0.56
460.681	0.54
461.038	0.56
461.396	0.54
461.753	0.54
462.111	0.54
462.468	0.52
462.825	0.52
463.182	0.51
463.54	0.51
463.897	0.51
464.254	0.51
464.611	0.5
464.968	0.49
465.325	0.49
465.682	0.46
466.039	0.47
466.395	0.46
466.752	0.45
467.109	0.46
467.466	0.46
467.822	0.45
468.179	0.44
468.535	0.43
468.892	0.44
469.248	0.43
469.605	0.42
469.961	0.42
470.318	0.43
470.674	0.41
471.03	0.41
471.386	0.4
471.743	0.4
472.099	0.38
472.455	0.4
472.811	0.37
473.167	0.37
473.523	0.37
473.879	0.36
474.235	0.36
474.59	0.35
474.946	0.35
475.302	0.35
475.657	0.34
476.013	0.34
476.369	0.33
476.724	0.34
477.08	0.33
477.435	0.32
477.791	0.32
478.146	0.32
478.501	0.31
478.857	0.31
479.212	0.3
479.567	0.3
479.922	0.3
480.277	0.29
480.632	0.29
480.987	0.29
481.342	0.28
481.697	0.28
482.052	0.27
482.407	0.28
482.762	0.27
483.116	0.26
483.471	0.25
483.826	0.25
484.18	0.26
484.535	0.25
484.89	0.25
485.244	0.25
485.598	0.25
485.953	0.24
486.307	0.24
486.661	0.24
487.016	0.23
487.37	0.23
487.724	0.23
488.078	0.23
488.432	0.22
488.786	0.22
489.14	0.22
489.494	0.22
489.848	0.21
490.202	0.22
490.556	0.21
490.91	0.21
491.263	0.21
491.617	0.21
491.971	0.21
492.324	0.21
492.678	0.21
493.031	0.2
493.385	0.2
493.738	0.2
494.091	0.2
494.445	0.2
494.798	0.2
495.151	0.19
495.504	0.19
495.857	0.19
496.21	0.19
496.564	0.18
496.916	0.19
497.269	0.18
497.622	0.19
497.975	0.18
498.328	0.19
498.681	0.19
499.033	0.18
499.386	0.19
499.739	0.18
500.091	0.18
500.444	0.18
500.796	0.18
501.149	0.17
501.501	0.18
501.854	0.18
502.206	0.17
502.558	0.17
502.91	0.17
503.263	0.17
503.615	0.17
503.967	0.17
504.319	0.17
504.671	0.17
505.023	0.16
505.375	0.16
505.726	0.16
506.078	0.16
506.43	0.16
506.782	0.16
507.133	0.16
507.485	0.17
507.837	0.17
508.188	0.16
508.54	0.17
508.891	0.17
509.243	0.15
509.594	0.16
509.945	0.16
510.296	0.15
510.648	0.17
510.999	0.15
511.35	0.16
511.701	0.16
512.052	0.16
512.403	0.16
512.754	0.15
513.105	0.15
513.456	0.16
513.807	0.16
514.157	0.16
514.508	0.15
514.859	0.15
515.209	0.16
515.56	0.16
515.91	0.15
516.261	0.16
516.611	0.15
516.962	0.16
517.312	0.15
517.662	0.15
518.013	0.15
518.363	0.16
518.713	0.15
519.063	0.16
519.413	0.15
519.763	0.15
520.113	0.15
520.463	0.16
520.813	0.16
521.163	0.15
521.512	0.15
521.862	0.15
522.212	0.16
522.562	0.16
522.911	0.15
523.261	0.15
523.61	0.16
523.96	0.15
524.309	0.16
524.658	0.16
525.008	0.15
525.357	0.15
525.706	0.16
526.056	0.15
526.405	0.15
526.754	0.15
527.103	0.15
527.452	0.16
527.801	0.15
528.15	0.15
528.499	0.15
528.847	0.15
529.196	0.16
529.545	0.16
529.893	0.16
530.242	0.17
530.591	0.16
530.939	0.17
531.288	0.16
531.636	0.17
531.985	0.16
532.333	0.16
532.681	0.17
533.029	0.16
533.378	0.16
533.726	0.17
534.074	0.17
534.422	0.16
534.77	0.17
535.118	0.16
535.466	0.16
535.814	0.16
536.162	0.17
536.509	0.17
536.857	0.16
537.205	0.17
537.552	0.16
537.9	0.16
538.248	0.16
538.595	0.17
538.943	0.17
539.29	0.16
539.637	0.16
539.985	0.16
540.332	0.16
540.679	0.16
541.026	0.16
541.373	0.17
541.721	0.15
542.068	0.16
542.415	0.16
542.762	0.15
543.108	0.15
543.455	0.15
543.802	0.15
544.149	0.15
544.496	0.15
544.842	0.15
545.189	0.15
545.535	0.16
545.882	0.15
546.228	0.15
546.575	0.14
546.921	0.15
547.267	0.15
547.614	0.16
547.96	0.15
548.306	0.15
548.652	0.15
548.998	0.16
549.344	0.15
549.69	0.16
550.036	0.16
550.382	0.15
550.728	0.16
551.074	0.16
551.42	0.16
551.765	0.16
552.111	0.16
552.457	0.16
552.802	0.16
553.148	0.15
553.493	0.16
553.839	0.17
554.184	0.16
554.529	0.16
554.875	0.16
555.22	0.17
555.565	0.17
555.91	0.17
556.255	0.16
556.6	0.17
556.945	0.16
557.29	0.16
557.635	0.16
557.98	0.16
558.325	0.16
558.67	0.17
559.014	0.17
559.359	0.17
559.704	0.16
560.048	0.15
560.393	0.15
560.737	0.15
561.082	0.16
561.426	0.16
561.77	0.16
562.115	0.15
562.459	0.16
562.803	0.16
563.147	0.16
563.491	0.16
563.835	0.16
564.179	0.16
564.523	0.16
564.867	0.15
565.211	0.15
565.555	0.16
565.899	0.17
566.242	0.16
566.586	0.15
566.93	0.17
567.273	0.16
567.617	0.17
567.96	0.17
568.304	0.16
568.647	0.15
568.99	0.16
569.334	0.17
569.677	0.17
570.02	0.17
570.363	0.17
570.706	0.17
571.049	0.16
571.392	0.17
571.735	0.16
572.078	0.17
572.421	0.17
572.764	0.16
573.106	0.17
573.449	0.16
573.792	0.17
574.134	0.16
574.477	0.16
574.819	0.16
575.162	0.16
575.504	0.16
575.847	0.17
576.189	0.17
576.531	0.16
576.873	0.17
577.215	0.16
577.558	0.16
577.9	0.16
578.242	0.16
578.584	0.16
578.926	0.16
579.267	0.16
579.609	0.16
579.951	0.16
580.293	0.16
580.634	0.17
580.976	0.17
581.318	0.16
581.659	0.15
582.001	0.16
582.342	0.17
582.683	0.17
583.025	0.15
583.366	0.15
583.707	0.16
584.049	0.16
584.39	0.15
584.731	0.16
585.072	0.15
585.413	0.16
585.754	0.16
586.095	0.16
586.435	0.17
586.776	0.17
587.117	0.16
587.458	0.16
587.798	0.16
588.139	0.16
588.48	0.16
588.82	0.16
589.161	0.16
589.501	0.16
589.841	0.15
590.182	0.15
590.522	0.16
590.862	0.16
591.202	0.16
591.542	0.16
591.882	0.16
592.222	0.15
592.562	0.16
592.902	0.16
593.242	0.16
593.582	0.16
593.922	0.15
594.261	0.15
594.601	0.16
594.941	0.15
595.28	0.16
595.62	0.16
595.959	0.16
596.299	0.16
596.638	0.16
596.977	0.15
597.317	0.16
597.656	0.16
597.995	0.15
598.334	0.16
598.673	0.16
599.012	0.15
599.351	0.16
599.69	0.15
600.029	0.16
600.368	0.16
600.707	0.16
601.046	0.15
601.384	0.16
601.723	0.15
602.061	0.15
602.4	0.17
602.738	0.16
603.077	0.16
603.415	0.15
603.754	0.16
604.092	0.16
604.43	0.16
604.768	0.16
605.107	0.16
605.445	0.16
605.783	0.15
606.121	0.16
606.459	0.16
606.796	0.16
607.134	0.15
607.472	0.16
607.81	0.16
608.148	0.15
608.485	0.16
608.823	0.15
609.16	0.15
609.498	0.16
609.835	0.15
610.173	0.16
610.51	0.16
610.847	0.16
611.185	0.16
611.522	0.15
611.859	0.17
612.196	0.16
612.533	0.16
612.87	0.17
613.207	0.16
613.544	0.17
613.881	0.17
614.217	0.16
614.554	0.16
614.891	0.16
615.228	0.16
615.564	0.16
615.901	0.17
616.237	0.16
616.574	0.16
616.91	0.17
617.246	0.16
617.583	0.17
617.919	0.17
618.255	0.17
618.591	0.16
618.927	0.16
619.263	0.17
619.599	0.17
619.935	0.17
620.271	0.17
620.607	0.17
620.943	0.16
621.279	0.17
621.614	0.16
621.95	0.16
622.286	0.16
622.621	0.15
622.957	0.16
623.292	0.15
623.627	0.15
623.963	0.15
624.298	0.16
624.633	0.15
624.968	0.15
625.304	0.15
625.639	0.15
625.974	0.15
626.309	0.15
626.644	0.15
626.979	0.16
627.313	0.15
627.648	0.15
627.983	0.15
628.318	0.14
628.652	0.14
628.987	0.14
629.321	0.15
629.656	0.14
629.99	0.14
630.325	0.15
630.659	0.14
630.993	0.14
631.327	0.14
631.662	0.14
631.996	0.14
632.33	0.14
632.664	0.14
632.998	0.14
633.332	0.14
633.666	0.14
633.999	0.14
634.333	0.14
634.667	0.14
635.001	0.13
635.334	0.14
635.668	0.13
636.001	0.14
636.335	0.14
636.668	0.14
637.001	0.13
637.335	0.14
637.668	0.14
638.001	0.13
638.334	0.13
638.668	0.13
639.001	0.13
639.334	0.13
639.667	0.13
639.999	0.13
640.332	0.13
640.665	0.13
640.998	0.12
641.331	0.12
641.663	0.13
641.996	0.13
642.328	0.14
642.661	0.13
642.993	0.13
643.326	0.13
643.658	0.13
643.99	0.12
644.323	0.12
644.655	0.13
644.987	0.13
645.319	0.13
645.651	0.13
645.983	0.13
646.315	0.13
646.647	0.13
646.979	0.14
647.31	0.14
647.642	0.13
647.974	0.13
648.305	0.14
648.637	0.14
648.968	0.14
649.3	0.15
649.631	0.14
649.963	0.13
650.294	0.14
650.625	0.14
650.957	0.13
651.288	0.14
651.619	0.14
651.95	0.14
652.281	0.14
652.612	0.14
652.943	0.14
653.274	0.14
653.604	0.14
653.935	0.13
654.266	0.13
654.596	0.13
654.927	0.13
655.258	0.14
655.588	0.14
655.918	0.14
656.249	0.12
656.579	0.13
656.909	0.13
657.24	0.14
657.57	0.14
657.9	0.13
658.23	0.14
658.56	0.14
658.89	0.13
659.22	0.13
659.55	0.14
659.88	0.14
660.209	0.14
660.539	0.15
660.869	0.14
661.198	0.14
661.528	0.15
661.857	0.14
662.187	0.14
662.516	0.14
662.846	0.14
663.175	0.14
663.504	0.14
663.833	0.13
664.163	0.14
664.492	0.13
664.821	0.13
665.15	0.12
665.479	0.13
665.807	0.12
666.136	0.12
666.465	0.13
666.794	0.12
667.122	0.12
667.451	0.12
667.78	0.12
668.108	0.13
668.437	0.12
668.765	0.13
669.093	0.13
669.422	0.12
669.75	0.13
670.078	0.13
670.406	0.13
670.734	0.13
671.062	0.12
671.39	0.13
671.718	0.13
672.046	0.13
672.374	0.12
672.702	0.13
673.029	0.12
673.357	0.13
673.685	0.13
674.012	0.12
674.34	0.12
674.667	0.13
674.995	0.12
675.322	0.13
675.649	0.12
675.977	0.13
676.304	0.12
676.631	0.13
676.958	0.13
677.285	0.12
677.612	0.11
677.939	0.12
678.266	0.12
678.593	0.12
678.92	0.12
679.246	0.11
679.573	0.12
679.9	0.11
680.226	0.12
680.553	0.12
680.879	0.11
681.206	0.11
681.532	0.11
681.858	0.11
682.184	0.11
682.511	0.11
682.837	0.11
683.163	0.11
683.489	0.11
683.815	0.1
684.141	0.1
684.467	0.11
684.793	0.11
685.118	0.11
685.444	0.11
685.77	0.11
686.095	0.12
686.421	0.11
686.746	0.12
687.072	0.11
687.397	0.11
687.723	0.12
688.048	0.12
688.373	0.11
688.698	0.11
689.023	0.12
689.349	0.12
689.674	0.11
689.999	0.11
690.323	0.11
690.648	0.11
690.973	0.1
691.298	0.1
691.623	0.1
691.947	0.11
692.272	0.1
692.596	0.1
692.921	0.1
693.245	0.1
693.57	0.1
693.894	0.11
694.218	0.1
694.543	0.1
694.867	0.1
695.191	0.1
695.515	0.1
695.839	0.09
696.163	0.1
696.487	0.1
696.811	0.1
697.135	0.1
697.458	0.1
697.782	0.1
698.106	0.1
698.429	0.1
698.753	0.1
699.076	0.1
699.4	0.1
699.723	0.1
700.046	0.09
700.37	0.1
700.693	0.1
701.016	0.1
701.339	0.1
701.662	0.1
701.985	0.1
702.308	0.1
702.631	0.1
702.954	0.11
703.277	0.11
703.599	0.1
703.922	0.1
704.245	0.1
704.567	0.09
704.89	0.09
705.212	0.1
705.535	0.09
705.857	0.09
706.179	0.08
706.502	0.09
706.824	0.08
707.146	0.09
707.468	0.09
707.79	0.08
708.112	0.1
708.434	0.09
708.756	0.09
709.078	0.09
709.399	0.09
709.721	0.1
710.043	0.09
710.364	0.09
710.686	0.09
711.007	0.09
711.329	0.09
711.65	0.09
711.972	0.09
712.293	0.09
712.614	0.09
712.935	0.09
713.256	0.09
713.577	0.1
713.898	0.08
714.219	0.09
714.54	0.09
714.861	0.08
715.182	0.09
715.503	0.09
715.823	0.09
716.144	0.08
716.464	0.08
716.785	0.08
717.105	0.08
717.426	0.08
717.746	0.08
718.066	0.07
718.387	0.08
718.707	0.07
719.027	0.08
719.347	0.07
719.667	0.07
719.987	0.07
720.307	0.07
720.627	0.06
720.947	0.08
721.266	0.07
721.586	0.07
721.906	0.07
722.225	0.06
722.545	0.07
722.864	0.07
723.184	0.07
723.503	0.06
723.823	0.07
724.142	0.06
724.461	0.07
724.78	0.06
725.099	0.07
725.418	0.07
725.737	0.06
726.056	0.07
726.375	0.07
726.694	0.07
727.013	0.07
727.331	0.06
727.65	0.07
727.969	0.07
728.287	0.07
728.606	0.07
728.924	0.06
729.242	0.07
729.561	0.07
729.879	0.07
730.197	0.07
730.515	0.06
730.834	0.06
731.152	0.07
731.47	0.06
731.788	0.07
732.105	0.06
732.423	0.07
732.741	0.06
733.059	0.06
733.376	0.06
733.694	0.06
734.012	0.06
734.329	0.07
734.647	0.06
734.964	0.07
735.281	0.06
735.599	0.07
735.916	0.07
736.233	0.06
736.55	0.07
736.867	0.06
737.184	0.07
737.501	0.06
737.818	0.07
738.135	0.06
738.452	0.07
738.768	0.06
739.085	0.07
739.402	0.05
739.718	0.07
740.035	0.07
740.351	0.07
740.668	0.08
740.984	0.07
741.3	0.07
741.617	0.07
741.933	0.06
742.249	0.08
742.565	0.07
742.881	0.07
743.197	0.07
743.513	0.06
743.829	0.06
744.144	0.07
744.46	0.06
744.776	0.07
745.091	0.06
745.407	0.07
745.722	0.06
746.038	0.07
746.353	0.05
746.669	0.07
746.984	0.06
747.299	0.07
747.614	0.07
747.93	0.07
748.245	0.06
748.56	0.07
748.875	0.06
749.189	0.07
749.504	0.06
749.819	0.07
750.134	0.06
750.448	0.06
750.763	0.07
751.078	0.06
751.392	0.06
751.707	0.08
752.021	0.07
752.335	0.07
752.65	0.06
752.964	0.06
753.278	0.06
753.592	0.07
753.906	0.06
754.22	0.07
754.534	0.07
754.848	0.06
755.162	0.06
755.476	0.06
755.789	0.06
756.103	0.06
756.417	0.07
756.73	0.07
757.044	0.07
757.357	0.07
757.671	0.07
757.984	0.07
758.297	0.08
758.61	0.07
758.924	0.07
759.237	0.07
759.55	0.06
759.863	0.06
760.176	0.07
760.488	0.06
760.801	0.07
761.114	0.06
761.427	0.06
761.739	0.07
762.052	0.06
762.365	0.06
762.677	0.06
762.99	0.06
763.302	0.06
763.614	0.06
763.926	0.06
764.239	0.06
764.551	0.06
764.863	0.06
765.175	0.07
765.487	0.06
765.799	0.05
766.111	0.05
766.423	0.06
766.734	0.05
767.046	0.05
767.358	0.05
767.669	0.06
767.981	0.06
768.292	0.06
768.604	0.05
768.915	0.06
769.226	0.05
769.537	0.05
769.849	0.06
770.16	0.05
770.471	0.05
770.782	0.05
771.093	0.06
771.404	0.04
771.715	0.04
772.025	0.05
772.336	0.05
772.647	0.04
772.957	0.05
773.268	0.05
773.578	0.05
773.889	0.05
774.199	0.05
774.51	0.05
774.82	0.05
775.13	0.06
775.44	0.05
775.75	0.05
776.06	0.05
776.37	0.05
776.68	0.05
776.99	0.06
777.3	0.05
777.61	0.06
777.92	0.05
778.229	0.05
778.539	0.05
778.848	0.05
779.158	0.06
779.467	0.06
779.777	0.05
780.086	0.05
780.395	0.05
780.704	0.05
781.013	0.04
781.323	0.04
781.632	0.05
781.941	0.05
782.249	0.05
782.558	0.05
782.867	0.05
783.176	0.04
783.485	0.04
783.793	0.05
784.102	0.06
784.41	0.04
784.719	0.05
785.027	0.04
785.335	0.05
785.644	0.05
785.952	0.04
786.26	0.04
786.568	0.04
786.876	0.04
787.184	0.04
787.492	0.04
787.8	0.05
788.108	0.05
788.416	0.04
788.723	0.05
789.031	0.04
789.338	0.04
789.646	0.04
789.953	0.05
790.261	0.05
790.568	0.05
790.876	0.04
791.183	0.05
791.49	0.04
791.797	0.05
792.104	0.04
792.411	0.05
792.718	0.04
793.025	0.05
793.332	0.05
793.639	0.05
793.945	0.05
794.252	0.05
794.559	0.05
794.865	0.05
795.172	0.06
795.478	0.05
795.784	0.05
796.091	0.05
796.397	0.06
796.703	0.06
797.009	0.06
797.315	0.06
797.622	0.06
797.927	0.05
798.233	0.06
798.539	0.06
798.845	0.05
799.151	0.06
799.456	0.06
799.762	0.05
800.068	0.05
800.373	0.06
800.679	0.05
800.984	0.05
801.289	0.05
801.595	0.05
801.9	0.05
802.205	0.05
802.51	0.05
802.815	0.05
803.12	0.05
803.425	0.05
803.73	0.05
804.035	0.04
804.339	0.04
804.644	0.04
804.949	0.05
805.253	0.05
805.558	0.05
805.862	0.05
806.167	0.04
806.471	0.04
806.775	0.05
807.08	0.05
807.384	0.05
807.688	0.05
807.992	0.06
808.296	0.05
808.6	0.06
808.904	0.05
809.207	0.06
809.511	0.05
809.815	0.06
810.119	0.05
810.422	0.06
810.726	0.06
811.029	0.06
811.332	0.05
811.636	0.06
811.939	0.05
812.242	0.05
812.546	0.05
812.849	0.05
813.152	0.06
813.455	0.05
813.758	0.06
814.06	0.05
814.363	0.06
814.666	0.06
814.969	0.05
815.271	0.05
815.574	0.05
815.877	0.05
816.179	0.04
816.481	0.05
816.784	0.05
817.086	0.04
817.388	0.04
817.69	0.04
817.993	0.03
818.295	0.04
818.597	0.04
818.899	0.03
819.2	0.03
819.502	0.03
819.804	0.04
820.106	0.04
820.407	0.02
820.709	0.04
821.01	0.04
821.312	0.04
821.613	0.03
821.915	0.03
822.216	0.03
822.517	0.03
822.818	0.03
823.119	0.03
823.42	0.03
823.721	0.03
824.022	0.03
824.323	0.03
824.624	0.03
824.925	0.04
825.226	0.04
825.526	0.03
825.827	0.04
826.127	0.04
826.428	0.04
826.728	0.03
827.028	0.03
827.329	0.04
827.629	0.03
827.929	0.04
828.229	0.04
828.529	0.04
828.829	0.03
829.129	0.03
829.429	0.03
829.729	0.04
830.029	0.03
830.328	0.03
830.628	0.02
830.927	0.02
831.227	0.02
831.526	0.03
831.826	0.02
832.125	0.03
832.424	0.02
832.724	0.03
833.023	0.03
833.322	0.04
833.621	0.03
833.92	0.02
834.219	0.03
834.518	0.03
834.816	0.02
835.115	0.02
835.414	0.02
835.712	0.02
836.011	0.02
836.309	0.02
836.608	0.02
836.906	0.02
837.205	0.01
837.503	0.01
837.801	0.01
838.099	0.01
838.397	0
838.695	0
838.993	0.01
839.291	-0
839.589	0
839.887	0
840.184	-0.01
840.482	-0.01
840.78	-0
841.077	-0.01
841.375	-0.01
841.672	-0.01
841.969	-0.02
842.267	-0.02
842.564	-0.02
842.861	-0.02
843.158	-0.02
843.455	-0.04
843.752	-0.03
844.049	-0.03
844.346	-0.04
844.643	-0.03
844.94	-0.04
845.236	-0.03
845.533	-0.04
845.83	-0.03
846.126	-0.04
846.423	-0.05
846.719	-0.06
847.015	-0.04
847.312	-0.06
847.608	-0.05
847.904	-0.06
848.2	-0.06
848.496	-0.06
848.792	-0.05
849.088	-0.04
849.384	-0.06
849.68	-0.07
849.975	-0.06
850.271	-0.07
850.567	-0.06
850.862	-0.07
851.158	-0.06
851.453	-0.06
851.748	-0.07
852.044	-0.06
852.339	-0.06
852.634	-0.08
852.929	-0.06
853.224	-0.07
853.519	-0.07
853.814	-0.07
854.109	-0.08
854.404	-0.08
854.699	-0.07
854.994	-0.07
855.288	-0.07
855.583	-0.07
855.877	-0.08
856.172	-0.07
856.466	-0.09
856.76	-0.08
857.055	-0.08
857.349	-0.08
857.643	-0.09
857.937	-0.1
858.231	-0.09
858.525	-0.1
858.819	-0.09
859.113	-0.1
859.407	-0.11
859.701	-0.11
859.994	-0.11
860.288	-0.09
860.581	-0.11
860.875	-0.11
861.168	-0.1
861.462	-0.11
861.755	-0.11
862.048	-0.12
862.341	-0.1
862.634	-0.11
862.928	-0.11
863.221	-0.11
863.513	-0.12
863.806	-0.13
864.099	-0.12
864.392	-0.12
864.685	-0.11
864.977	-0.12
865.27	-0.13
865.562	-0.12
865.855	-0.12
866.147	-0.13
866.44	-0.12
866.732	-0.14
867.024	-0.14
867.316	-0.13
867.608	-0.14
867.9	-0.13
868.192	-0.14
868.484	-0.13
868.776	-0.14
869.068	-0.14
869.359	-0.15
869.651	-0.13
869.943	-0.16
870.234	-0.16
870.526	-0.16
870.817	-0.17
871.108	-0.15
871.4	-0.14
871.691	-0.16
871.982	-0.17
872.273	-0.17
872.564	-0.17
872.855	-0.17
873.146	-0.18
873.437	-0.18
873.728	-0.19
874.019	-0.16
874.309	-0.18
874.6	-0.18
874.89	-0.18
875.181	-0.17
875.471	-0.16
875.762	-0.16
876.052	-0.18
876.342	-0.17
876.632	-0.16
876.922	-0.18
877.213	-0.18
877.503	-0.18
877.792	-0.18
878.082	-0.17
878.372	-0.17
878.662	-0.19
878.952	-0.18
879.241	-0.18
879.531	-0.17
879.82	-0.17
880.11	-0.17
880.399	-0.18
880.688	-0.17
880.978	-0.17
881.267	-0.17
