Data from 12-12-AQDScycling_Absorbance__396__00396.txt Node

Date: Tue Dec 12 12:35:44 EST 2023
User: kyuminlee
Spectrometer: FLMS00943
Trigger mode: 0
Integration Time (sec): 1.000000E-1
Scans to average: 1
Electric dark correction enabled: true
Nonlinearity correction enabled: false
Boxcar width: 0
XAxis mode: Wavelengths
Number of Pixels in Spectrum: 2048
>>>>>Begin Spectral Data<<<<<
179.651	-0
180.037	-0
180.424	-0
180.81	-0.23
181.197	0.11
181.583	-0
181.97	-0.5
182.356	-0
182.743	-0.9
183.129	0.28
183.515	0.68
183.901	-2.08
184.288	0.37
184.674	-0
185.06	-1.06
185.446	-0.22
185.832	-0
186.218	0.16
186.604	-0
186.99	-0
187.376	0.46
187.762	0.05
188.148	0.11
188.534	-0.14
188.92	0.06
189.305	0.13
189.691	0.1
190.077	0.09
190.463	0.18
190.848	0.26
191.234	-0.02
191.619	0.08
192.005	0.11
192.391	0.06
192.776	0.06
193.161	-0.01
193.547	0.03
193.932	0.04
194.318	-0.03
194.703	0.14
195.088	0.39
195.473	0.27
195.859	0.14
196.244	0.14
196.629	0.05
197.014	0.14
197.399	0.08
197.784	-0
198.169	0.04
198.554	0.26
198.939	0.11
199.324	0.14
199.709	0
200.094	0.09
200.478	0.16
200.863	0.18
201.248	0.23
201.633	0.38
202.017	0.2
202.402	0.25
202.787	0.12
203.171	0.17
203.556	0.1
203.94	0.08
204.325	0.22
204.709	0.21
205.093	0.03
205.478	0.11
205.862	0.03
206.246	0.05
206.631	0.22
207.015	0.06
207.399	0.2
207.783	0.15
208.167	0.18
208.551	0.11
208.935	0.1
209.319	0.15
209.703	0.17
210.087	0.28
210.471	0.02
210.855	0.14
211.239	0.22
211.623	0.22
212.007	0.17
212.39	0.36
212.774	0.11
213.158	0.08
213.541	0.22
213.925	0.25
214.309	0.25
214.692	0.28
215.076	0.23
215.459	0.04
215.842	0.14
216.226	0.24
216.609	0.29
216.993	0.14
217.376	0.37
217.759	0.09
218.142	0.32
218.525	0.55
218.909	0.35
219.292	0.29
219.675	0.33
220.058	0.36
220.441	0.41
220.824	0.57
221.207	0.56
221.59	0.5
221.973	0.48
222.355	0.61
222.738	0.64
223.121	0.51
223.504	0.56
223.886	0.82
224.269	0.63
224.652	0.69
225.034	0.85
225.417	0.81
225.799	0.76
226.182	0.81
226.564	0.87
226.947	0.7
227.329	0.8
227.711	0.96
228.094	0.83
228.476	0.99
228.858	0.77
229.24	0.87
229.623	0.94
230.005	0.82
230.387	0.89
230.769	0.84
231.151	0.91
231.533	0.93
231.915	0.87
232.297	1.07
232.679	0.9
233.061	0.98
233.442	0.94
233.824	1.04
234.206	1.02
234.588	1.05
234.969	0.98
235.351	0.95
235.733	1.02
236.114	1.24
236.496	1.19
236.877	1.33
237.259	1.07
237.64	1.15
238.022	1.05
238.403	1
238.784	1.02
239.165	0.98
239.547	1.2
239.928	1.02
240.309	0.97
240.69	1.05
241.071	1.14
241.452	1.16
241.834	1.16
242.215	1.02
242.595	1.06
242.976	1.15
243.357	1.12
243.738	1.08
244.119	1.33
244.5	1.12
244.881	1.19
245.261	1.25
245.642	1.28
246.023	1.21
246.403	1.1
246.784	1.24
247.164	1.35
247.545	1.29
247.925	1.18
248.306	1.28
248.686	1.45
249.067	1.19
249.447	1.36
249.827	1.52
250.207	1.6
250.588	1.39
250.968	1.42
251.348	1.3
251.728	1.34
252.108	1.31
252.488	1.31
252.868	1.25
253.248	1.32
253.628	1.46
254.008	1.46
254.388	1.29
254.768	1.33
255.147	1.38
255.527	1.43
255.907	1.27
256.287	1.45
256.666	1.38
257.046	1.49
257.425	1.41
257.805	1.41
258.184	1.28
258.564	1.44
258.943	1.29
259.323	1.49
259.702	1.53
260.081	1.5
260.461	1.44
260.84	1.47
261.219	1.72
261.598	1.46
261.977	1.45
262.356	1.54
262.736	1.38
263.115	1.52
263.494	1.34
263.873	1.4
264.251	1.49
264.63	1.49
265.009	1.4
265.388	1.39
265.767	1.35
266.145	1.48
266.524	1.44
266.903	1.45
267.281	1.44
267.66	1.54
268.039	1.52
268.417	1.38
268.796	1.53
269.174	1.38
269.552	1.37
269.931	1.49
270.309	1.39
270.687	1.54
271.066	1.46
271.444	1.31
271.822	1.4
272.2	1.39
272.578	1.38
272.956	1.3
273.334	1.3
273.712	1.48
274.09	1.44
274.468	1.31
274.846	1.38
275.224	1.39
275.602	1.35
275.98	1.33
276.357	1.49
276.735	1.59
277.113	1.37
277.49	1.27
277.868	1.32
278.246	1.36
278.623	1.36
279.001	1.36
279.378	1.36
279.756	1.43
280.133	1.56
280.51	1.47
280.888	1.45
281.265	1.39
281.642	1.44
282.019	1.62
282.396	1.54
282.773	1.54
283.151	1.57
283.528	1.48
283.905	1.52
284.282	1.54
284.659	1.53
285.035	1.42
285.412	1.32
285.789	1.47
286.166	1.42
286.543	1.53
286.919	1.47
287.296	1.37
287.673	1.6
288.049	1.48
288.426	1.57
288.802	1.45
289.179	1.41
289.555	1.56
289.932	1.45
290.308	1.4
290.684	1.42
291.061	1.37
291.437	1.54
291.813	1.46
292.189	1.29
292.565	1.29
292.942	1.29
293.318	1.37
293.694	1.36
294.07	1.47
294.446	1.45
294.822	1.54
295.197	1.39
295.573	1.49
295.949	1.43
296.325	1.46
296.701	1.43
297.076	1.44
297.452	1.48
297.828	1.42
298.203	1.46
298.579	1.43
298.954	1.38
299.33	1.4
299.705	1.33
300.081	1.43
300.456	1.35
300.831	1.45
301.206	1.33
301.582	1.47
301.957	1.42
302.332	1.45
302.707	1.29
303.082	1.36
303.457	1.35
303.832	1.34
304.207	1.27
304.582	1.31
304.957	1.29
305.332	1.31
305.707	1.32
306.082	1.32
306.456	1.36
306.831	1.26
307.206	1.25
307.58	1.24
307.955	1.22
308.33	1.23
308.704	1.22
309.079	1.19
309.453	1.27
309.828	1.18
310.202	1.14
310.576	1.14
310.951	1.23
311.325	1.21
311.699	1.17
312.073	1.12
312.447	1.14
312.821	1.11
313.196	1.17
313.57	1.08
313.944	1.07
314.317	1.07
314.691	1.14
315.065	1.22
315.439	1.14
315.813	1.13
316.187	1.09
316.56	1.18
316.934	1.11
317.308	1.08
317.681	1.07
318.055	1.14
318.428	1.11
318.802	1.1
319.175	1.17
319.549	1.12
319.922	1.05
320.295	1.07
320.669	1.16
321.042	1.1
321.415	1.11
321.788	1.12
322.162	1.15
322.535	1.16
322.908	1.17
323.281	1.06
323.654	1.11
324.027	1.08
324.4	1.07
324.773	1.12
325.145	1.16
325.518	1.1
325.891	1.09
326.264	1.13
326.636	1.12
327.009	1.24
327.382	1.14
327.754	1.2
328.127	1.09
328.499	1.18
328.872	1.19
329.244	1.16
329.616	1.13
329.989	1.12
330.361	1.15
330.733	1.19
331.106	1.17
331.478	1.23
331.85	1.18
332.222	1.13
332.594	1.2
332.966	1.2
333.338	1.25
333.71	1.22
334.082	1.26
334.454	1.14
334.826	1.16
335.197	1.22
335.569	1.21
335.941	1.14
336.312	1.24
336.684	1.24
337.056	1.17
337.427	1.27
337.799	1.25
338.17	1.22
338.542	1.18
338.913	1.29
339.284	1.25
339.656	1.22
340.027	1.26
340.398	1.3
340.769	1.3
341.141	1.32
341.512	1.22
341.883	1.31
342.254	1.24
342.625	1.34
342.996	1.27
343.367	1.27
343.738	1.28
344.108	1.21
344.479	1.36
344.85	1.25
345.221	1.28
345.591	1.24
345.962	1.29
346.333	1.37
346.703	1.15
347.074	1.22
347.444	1.21
347.815	1.27
348.185	1.22
348.556	1.22
348.926	1.27
349.296	1.22
349.666	1.27
350.037	1.17
350.407	1.25
350.777	1.28
351.147	1.27
351.517	1.33
351.887	1.25
352.257	1.37
352.627	1.28
352.997	1.28
353.367	1.28
353.737	1.41
354.106	1.31
354.476	1.3
354.846	1.38
355.216	1.36
355.585	1.41
355.955	1.49
356.324	1.4
356.694	1.4
357.063	1.34
357.433	1.42
357.802	1.38
358.171	1.37
358.541	1.35
358.91	1.41
359.279	1.48
359.648	1.39
360.017	1.5
360.387	1.45
360.756	1.28
361.125	1.49
361.494	1.55
361.863	1.49
362.231	1.49
362.6	1.52
362.969	1.55
363.338	1.38
363.707	1.52
364.075	1.51
364.444	1.49
364.813	1.5
365.181	1.51
365.55	1.42
365.918	1.45
366.287	1.57
366.655	1.65
367.024	1.5
367.392	1.5
367.76	1.44
368.128	1.51
368.497	1.51
368.865	1.52
369.233	1.6
369.601	1.44
369.969	1.44
370.337	1.51
370.705	1.49
371.073	1.47
371.441	1.42
371.809	1.41
372.177	1.51
372.544	1.53
372.912	1.63
373.28	1.55
373.647	1.64
374.015	1.63
374.383	1.75
374.75	1.55
375.118	1.66
375.485	1.64
375.853	1.66
376.22	1.54
376.587	1.54
376.955	1.65
377.322	1.57
377.689	1.56
378.056	1.45
378.423	1.47
378.79	1.47
379.157	1.46
379.524	1.58
379.891	1.48
380.258	1.56
380.625	1.48
380.992	1.45
381.359	1.63
381.726	1.63
382.092	1.47
382.459	1.47
382.826	1.47
383.192	1.51
383.559	1.56
383.925	1.5
384.292	1.4
384.658	1.66
385.025	1.58
385.391	1.77
385.757	1.68
386.123	1.6
386.49	1.47
386.856	1.69
387.222	1.58
387.588	1.58
387.954	1.64
388.32	1.61
388.686	1.54
389.052	1.54
389.418	1.68
389.784	1.49
390.15	1.73
390.515	1.36
390.881	1.69
391.247	1.52
391.613	1.61
391.978	1.48
392.344	1.65
392.709	1.58
393.075	1.57
393.44	1.54
393.806	1.49
394.171	1.54
394.536	1.59
394.902	1.72
395.267	1.53
395.632	1.58
395.997	1.46
396.362	1.52
396.727	1.56
397.092	1.58
397.457	1.52
397.822	1.44
398.187	1.52
398.552	1.54
398.917	1.6
399.282	1.47
399.646	1.52
400.011	1.58
400.376	1.48
400.74	1.52
401.105	1.68
401.47	1.55
401.834	1.44
402.199	1.47
402.563	1.53
402.927	1.48
403.292	1.62
403.656	1.43
404.02	1.56
404.384	1.75
404.749	1.63
405.113	1.51
405.477	1.7
405.841	1.62
406.205	1.47
406.569	1.52
406.933	1.49
407.296	1.63
407.66	1.43
408.024	1.54
408.388	1.62
408.752	1.56
409.115	1.57
409.479	1.62
409.842	1.61
410.206	1.44
410.569	1.49
410.933	1.51
411.296	1.43
411.66	1.64
412.023	1.56
412.386	1.53
412.749	1.44
413.113	1.42
413.476	1.55
413.839	1.41
414.202	1.53
414.565	1.35
414.928	1.43
415.291	1.33
415.654	1.4
416.017	1.54
416.38	1.55
416.742	1.48
417.105	1.31
417.468	1.36
417.83	1.49
418.193	1.5
418.556	1.36
418.918	1.36
419.281	1.41
419.643	1.55
420.005	1.58
420.368	1.55
420.73	1.38
421.092	1.58
421.455	1.51
421.817	1.34
422.179	1.43
422.541	1.54
422.903	1.55
423.265	1.46
423.627	1.48
423.989	1.39
424.351	1.33
424.713	1.53
425.075	1.41
425.436	1.43
425.798	1.38
426.16	1.49
426.521	1.47
426.883	1.49
427.245	1.48
427.606	1.35
427.967	1.36
428.329	1.4
428.69	1.45
429.052	1.33
429.413	1.49
429.774	1.45
430.135	1.54
430.497	1.51
430.858	1.42
431.219	1.47
431.58	1.28
431.941	1.47
432.302	1.41
432.663	1.48
433.024	1.5
433.384	1.37
433.745	1.31
434.106	1.45
434.467	1.4
434.827	1.48
435.188	1.45
435.548	1.5
435.909	1.38
436.269	1.39
436.63	1.36
436.99	1.34
437.351	1.33
437.711	1.41
438.071	1.28
438.431	1.32
438.792	1.28
439.152	1.38
439.512	1.31
439.872	1.25
440.232	1.38
440.592	1.38
440.952	1.28
441.312	1.27
441.671	1.37
442.031	1.32
442.391	1.28
442.751	1.29
443.11	1.32
443.47	1.22
443.83	1.18
444.189	1.24
444.549	1.27
444.908	1.19
445.267	1.22
445.627	1.24
445.986	1.2
446.345	1.2
446.705	1.21
447.064	1.2
447.423	1.18
447.782	1.19
448.141	1.18
448.5	1.14
448.859	1.2
449.218	1.16
449.577	1.16
449.936	1.15
450.295	1.14
450.653	1.14
451.012	1.14
451.371	1.12
451.729	1.12
452.088	1.1
452.447	1.1
452.805	1.09
453.163	1.09
453.522	1.08
453.88	1.05
454.239	1.05
454.597	1.04
454.955	1.02
455.313	1.02
455.671	1.01
456.029	1
456.388	0.98
456.746	1.01
457.104	0.96
457.461	0.95
457.819	0.94
458.177	0.94
458.535	0.93
458.893	0.91
459.25	0.9
459.608	0.89
459.966	0.89
460.323	0.86
460.681	0.86
461.038	0.84
461.396	0.84
461.753	0.81
462.111	0.82
462.468	0.79
462.825	0.79
463.182	0.78
463.54	0.75
463.897	0.76
464.254	0.75
464.611	0.74
464.968	0.74
465.325	0.72
465.682	0.71
466.039	0.7
466.395	0.69
466.752	0.68
467.109	0.67
467.466	0.67
467.822	0.67
468.179	0.64
468.535	0.63
468.892	0.63
469.248	0.61
469.605	0.61
469.961	0.59
470.318	0.6
470.674	0.58
471.03	0.57
471.386	0.58
471.743	0.56
472.099	0.55
472.455	0.55
472.811	0.53
473.167	0.54
473.523	0.52
473.879	0.5
474.235	0.49
474.59	0.49
474.946	0.48
475.302	0.47
475.657	0.46
476.013	0.45
476.369	0.44
476.724	0.44
477.08	0.43
477.435	0.43
477.791	0.43
478.146	0.42
478.501	0.42
478.857	0.41
479.212	0.4
479.567	0.39
479.922	0.38
480.277	0.37
480.632	0.37
480.987	0.38
481.342	0.36
481.697	0.35
482.052	0.35
482.407	0.34
482.762	0.33
483.116	0.33
483.471	0.33
483.826	0.31
484.18	0.31
484.535	0.31
484.89	0.3
485.244	0.3
485.598	0.29
485.953	0.29
486.307	0.28
486.661	0.28
487.016	0.27
487.37	0.28
487.724	0.27
488.078	0.27
488.432	0.26
488.786	0.26
489.14	0.26
489.494	0.25
489.848	0.24
490.202	0.24
490.556	0.24
490.91	0.24
491.263	0.23
491.617	0.24
491.971	0.23
492.324	0.23
492.678	0.22
493.031	0.23
493.385	0.22
493.738	0.21
494.091	0.22
494.445	0.2
494.798	0.2
495.151	0.21
495.504	0.2
495.857	0.19
496.21	0.2
496.564	0.19
496.916	0.2
497.269	0.19
497.622	0.19
497.975	0.18
498.328	0.2
498.681	0.19
499.033	0.19
499.386	0.18
499.739	0.18
500.091	0.17
500.444	0.17
500.796	0.17
501.149	0.17
501.501	0.18
501.854	0.17
502.206	0.16
502.558	0.17
502.91	0.17
503.263	0.16
503.615	0.16
503.967	0.16
504.319	0.16
504.671	0.16
505.023	0.16
505.375	0.15
505.726	0.15
506.078	0.15
506.43	0.15
506.782	0.15
507.133	0.15
507.485	0.16
507.837	0.16
508.188	0.15
508.54	0.16
508.891	0.16
509.243	0.14
509.594	0.15
509.945	0.15
510.296	0.14
510.648	0.15
510.999	0.14
511.35	0.14
511.701	0.15
512.052	0.14
512.403	0.14
512.754	0.14
513.105	0.14
513.456	0.14
513.807	0.14
514.157	0.15
514.508	0.14
514.859	0.13
515.209	0.14
515.56	0.14
515.91	0.13
516.261	0.15
516.611	0.14
516.962	0.14
517.312	0.14
517.662	0.14
518.013	0.14
518.363	0.14
518.713	0.14
519.063	0.14
519.413	0.14
519.763	0.13
520.113	0.13
520.463	0.14
520.813	0.14
521.163	0.14
521.512	0.14
521.862	0.14
522.212	0.14
522.562	0.14
522.911	0.14
523.261	0.14
523.61	0.14
523.96	0.14
524.309	0.14
524.658	0.13
525.008	0.14
525.357	0.14
525.706	0.14
526.056	0.14
526.405	0.14
526.754	0.14
527.103	0.14
527.452	0.14
527.801	0.14
528.15	0.14
528.499	0.14
528.847	0.14
529.196	0.14
529.545	0.13
529.893	0.15
530.242	0.14
530.591	0.15
530.939	0.15
531.288	0.14
531.636	0.15
531.985	0.14
532.333	0.14
532.681	0.14
533.029	0.14
533.378	0.14
533.726	0.14
534.074	0.15
534.422	0.14
534.77	0.14
535.118	0.14
535.466	0.15
535.814	0.15
536.162	0.15
536.509	0.15
536.857	0.14
537.205	0.16
537.552	0.15
537.9	0.15
538.248	0.13
538.595	0.15
538.943	0.15
539.29	0.15
539.637	0.15
539.985	0.15
540.332	0.14
540.679	0.15
541.026	0.13
541.373	0.15
541.721	0.14
542.068	0.14
542.415	0.14
542.762	0.14
543.108	0.13
543.455	0.13
543.802	0.13
544.149	0.13
544.496	0.13
544.842	0.13
545.189	0.13
545.535	0.13
545.882	0.14
546.228	0.13
546.575	0.13
546.921	0.13
547.267	0.14
547.614	0.13
547.96	0.13
548.306	0.13
548.652	0.14
548.998	0.14
549.344	0.13
549.69	0.13
550.036	0.14
550.382	0.14
550.728	0.13
551.074	0.14
551.42	0.13
551.765	0.14
552.111	0.14
552.457	0.15
552.802	0.13
553.148	0.14
553.493	0.14
553.839	0.14
554.184	0.14
554.529	0.13
554.875	0.14
555.22	0.15
555.565	0.14
555.91	0.14
556.255	0.16
556.6	0.14
556.945	0.14
557.29	0.14
557.635	0.14
557.98	0.14
558.325	0.14
558.67	0.15
559.014	0.14
559.359	0.15
559.704	0.15
560.048	0.14
560.393	0.15
560.737	0.14
561.082	0.14
561.426	0.14
561.77	0.14
562.115	0.14
562.459	0.13
562.803	0.14
563.147	0.14
563.491	0.14
563.835	0.14
564.179	0.14
564.523	0.14
564.867	0.14
565.211	0.14
565.555	0.14
565.899	0.15
566.242	0.14
566.586	0.13
566.93	0.15
567.273	0.15
567.617	0.15
567.96	0.14
568.304	0.14
568.647	0.15
568.99	0.15
569.334	0.15
569.677	0.14
570.02	0.15
570.363	0.15
570.706	0.14
571.049	0.14
571.392	0.15
571.735	0.14
572.078	0.14
572.421	0.16
572.764	0.14
573.106	0.14
573.449	0.14
573.792	0.14
574.134	0.14
574.477	0.14
574.819	0.14
575.162	0.14
575.504	0.14
575.847	0.14
576.189	0.14
576.531	0.14
576.873	0.14
577.215	0.14
577.558	0.15
577.9	0.13
578.242	0.14
578.584	0.15
578.926	0.14
579.267	0.14
579.609	0.15
579.951	0.14
580.293	0.15
580.634	0.15
580.976	0.14
581.318	0.14
581.659	0.14
582.001	0.14
582.342	0.14
582.683	0.14
583.025	0.14
583.366	0.13
583.707	0.14
584.049	0.14
584.39	0.14
584.731	0.13
585.072	0.13
585.413	0.15
585.754	0.14
586.095	0.14
586.435	0.15
586.776	0.15
587.117	0.13
587.458	0.14
587.798	0.14
588.139	0.14
588.48	0.13
588.82	0.14
589.161	0.14
589.501	0.13
589.841	0.14
590.182	0.13
590.522	0.14
590.862	0.15
591.202	0.14
591.542	0.14
591.882	0.14
592.222	0.14
592.562	0.14
592.902	0.14
593.242	0.13
593.582	0.14
593.922	0.14
594.261	0.13
594.601	0.13
594.941	0.14
595.28	0.13
595.62	0.14
595.959	0.14
596.299	0.13
596.638	0.14
596.977	0.13
597.317	0.14
597.656	0.14
597.995	0.14
598.334	0.15
598.673	0.14
599.012	0.14
599.351	0.14
599.69	0.14
600.029	0.14
600.368	0.14
600.707	0.14
601.046	0.14
601.384	0.15
601.723	0.14
602.061	0.13
602.4	0.14
602.738	0.14
603.077	0.14
603.415	0.13
603.754	0.14
604.092	0.14
604.43	0.14
604.768	0.14
605.107	0.14
605.445	0.14
605.783	0.13
606.121	0.13
606.459	0.13
606.796	0.13
607.134	0.13
607.472	0.13
607.81	0.14
608.148	0.13
608.485	0.13
608.823	0.14
609.16	0.14
609.498	0.13
609.835	0.13
610.173	0.13
610.51	0.13
610.847	0.14
611.185	0.14
611.522	0.13
611.859	0.14
612.196	0.14
612.533	0.14
612.87	0.14
613.207	0.14
613.544	0.14
613.881	0.15
614.217	0.14
614.554	0.14
614.891	0.14
615.228	0.14
615.564	0.15
615.901	0.15
616.237	0.15
616.574	0.14
616.91	0.14
617.246	0.14
617.583	0.15
617.919	0.15
618.255	0.14
618.591	0.14
618.927	0.14
619.263	0.15
619.599	0.15
619.935	0.14
620.271	0.14
620.607	0.15
620.943	0.14
621.279	0.14
621.614	0.14
621.95	0.15
622.286	0.14
622.621	0.13
622.957	0.14
623.292	0.13
623.627	0.13
623.963	0.13
624.298	0.13
624.633	0.13
624.968	0.13
625.304	0.13
625.639	0.12
625.974	0.13
626.309	0.13
626.644	0.13
626.979	0.13
627.313	0.13
627.648	0.13
627.983	0.13
628.318	0.13
628.652	0.12
628.987	0.13
629.321	0.12
629.656	0.12
629.99	0.12
630.325	0.13
630.659	0.12
630.993	0.12
631.327	0.12
631.662	0.11
631.996	0.12
632.33	0.13
632.664	0.12
632.998	0.12
633.332	0.12
633.666	0.12
633.999	0.12
634.333	0.11
634.667	0.12
635.001	0.11
635.334	0.12
635.668	0.12
636.001	0.12
636.335	0.12
636.668	0.12
637.001	0.11
637.335	0.12
637.668	0.11
638.001	0.11
638.334	0.12
638.668	0.12
639.001	0.11
639.334	0.11
639.667	0.12
639.999	0.11
640.332	0.11
640.665	0.11
640.998	0.11
641.331	0.11
641.663	0.1
641.996	0.11
642.328	0.11
642.661	0.12
642.993	0.11
643.326	0.11
643.658	0.11
643.99	0.1
644.323	0.11
644.655	0.11
644.987	0.11
645.319	0.11
645.651	0.11
645.983	0.11
646.315	0.1
646.647	0.1
646.979	0.12
647.31	0.12
647.642	0.11
647.974	0.11
648.305	0.12
648.637	0.11
648.968	0.11
649.3	0.12
649.631	0.12
649.963	0.11
650.294	0.12
650.625	0.12
650.957	0.12
651.288	0.12
651.619	0.12
651.95	0.11
652.281	0.12
652.612	0.12
652.943	0.12
653.274	0.12
653.604	0.11
653.935	0.11
654.266	0.12
654.596	0.11
654.927	0.11
655.258	0.11
655.588	0.12
655.918	0.11
656.249	0.1
656.579	0.11
656.909	0.11
657.24	0.11
657.57	0.11
657.9	0.11
658.23	0.11
658.56	0.12
658.89	0.12
659.22	0.11
659.55	0.11
659.88	0.11
660.209	0.12
660.539	0.13
660.869	0.12
661.198	0.12
661.528	0.12
661.857	0.12
662.187	0.12
662.516	0.12
662.846	0.11
663.175	0.11
663.504	0.12
663.833	0.11
664.163	0.12
664.492	0.11
664.821	0.11
665.15	0.11
665.479	0.11
665.807	0.11
666.136	0.11
666.465	0.11
666.794	0.11
667.122	0.11
667.451	0.1
667.78	0.11
668.108	0.11
668.437	0.1
668.765	0.11
669.093	0.11
669.422	0.11
669.75	0.11
670.078	0.11
670.406	0.1
670.734	0.12
671.062	0.11
671.39	0.1
671.718	0.11
672.046	0.11
672.374	0.1
672.702	0.11
673.029	0.11
673.357	0.11
673.685	0.12
674.012	0.1
674.34	0.11
674.667	0.11
674.995	0.11
675.322	0.11
675.649	0.1
675.977	0.11
676.304	0.11
676.631	0.11
676.958	0.11
677.285	0.1
677.612	0.1
677.939	0.1
678.266	0.11
678.593	0.11
678.92	0.11
679.246	0.1
679.573	0.11
679.9	0.1
680.226	0.1
680.553	0.1
680.879	0.1
681.206	0.1
681.532	0.1
681.858	0.1
682.184	0.1
682.511	0.1
682.837	0.1
683.163	0.1
683.489	0.1
683.815	0.1
684.141	0.09
684.467	0.1
684.793	0.09
685.118	0.09
685.444	0.09
685.77	0.1
686.095	0.1
686.421	0.09
686.746	0.1
687.072	0.1
687.397	0.1
687.723	0.11
688.048	0.11
688.373	0.1
688.698	0.1
689.023	0.1
689.349	0.1
689.674	0.11
689.999	0.1
690.323	0.09
690.648	0.09
690.973	0.09
691.298	0.1
691.623	0.1
691.947	0.1
692.272	0.09
692.596	0.1
692.921	0.1
693.245	0.09
693.57	0.1
693.894	0.09
694.218	0.1
694.543	0.09
694.867	0.09
695.191	0.08
695.515	0.09
695.839	0.08
696.163	0.09
696.487	0.09
696.811	0.09
697.135	0.09
697.458	0.09
697.782	0.09
698.106	0.09
698.429	0.09
698.753	0.08
699.076	0.09
699.4	0.08
699.723	0.09
700.046	0.08
700.37	0.09
700.693	0.09
701.016	0.09
701.339	0.09
701.662	0.1
701.985	0.09
702.308	0.09
702.631	0.09
702.954	0.09
703.277	0.09
703.599	0.09
703.922	0.08
704.245	0.08
704.567	0.08
704.89	0.08
705.212	0.08
705.535	0.07
705.857	0.08
706.179	0.08
706.502	0.08
706.824	0.07
707.146	0.08
707.468	0.08
707.79	0.07
708.112	0.07
708.434	0.08
708.756	0.08
709.078	0.08
709.399	0.08
709.721	0.07
710.043	0.08
710.364	0.08
710.686	0.08
711.007	0.08
711.329	0.09
711.65	0.08
711.972	0.08
712.293	0.09
712.614	0.08
712.935	0.08
713.256	0.08
713.577	0.08
713.898	0.08
714.219	0.08
714.54	0.08
714.861	0.08
715.182	0.07
715.503	0.07
715.823	0.08
716.144	0.07
716.464	0.07
716.785	0.06
717.105	0.07
717.426	0.08
717.746	0.07
718.066	0.07
718.387	0.07
718.707	0.06
719.027	0.07
719.347	0.06
719.667	0.06
719.987	0.06
720.307	0.06
720.627	0.06
720.947	0.07
721.266	0.07
721.586	0.07
721.906	0.07
722.225	0.07
722.545	0.07
722.864	0.07
723.184	0.07
723.503	0.06
723.823	0.07
724.142	0.05
724.461	0.06
724.78	0.07
725.099	0.07
725.418	0.06
725.737	0.06
726.056	0.06
726.375	0.06
726.694	0.07
727.013	0.06
727.331	0.05
727.65	0.06
727.969	0.07
728.287	0.07
728.606	0.06
728.924	0.06
729.242	0.07
729.561	0.07
729.879	0.06
730.197	0.07
730.515	0.07
730.834	0.06
731.152	0.06
731.47	0.06
731.788	0.06
732.105	0.06
732.423	0.06
732.741	0.06
733.059	0.06
733.376	0.07
733.694	0.06
734.012	0.05
734.329	0.07
734.647	0.06
734.964	0.07
735.281	0.06
735.599	0.07
735.916	0.07
736.233	0.06
736.55	0.07
736.867	0.06
737.184	0.07
737.501	0.06
737.818	0.06
738.135	0.07
738.452	0.06
738.768	0.06
739.085	0.07
739.402	0.06
739.718	0.06
740.035	0.07
740.351	0.07
740.668	0.07
740.984	0.06
741.3	0.07
741.617	0.07
741.933	0.07
742.249	0.06
742.565	0.06
742.881	0.07
743.197	0.06
743.513	0.06
743.829	0.06
744.144	0.05
744.46	0.06
744.776	0.06
745.091	0.06
745.407	0.06
745.722	0.05
746.038	0.05
746.353	0.05
746.669	0.06
746.984	0.05
747.299	0.06
747.614	0.06
747.93	0.06
748.245	0.04
748.56	0.06
748.875	0.06
749.189	0.06
749.504	0.05
749.819	0.06
750.134	0.06
750.448	0.06
750.763	0.06
751.078	0.05
751.392	0.06
751.707	0.07
752.021	0.06
752.335	0.07
752.65	0.06
752.964	0.06
753.278	0.06
753.592	0.06
753.906	0.05
754.22	0.06
754.534	0.06
754.848	0.06
755.162	0.06
755.476	0.07
755.789	0.06
756.103	0.06
756.417	0.06
756.73	0.06
757.044	0.07
757.357	0.06
757.671	0.06
757.984	0.06
758.297	0.07
758.61	0.06
758.924	0.06
759.237	0.06
759.55	0.06
759.863	0.06
760.176	0.07
760.488	0.06
760.801	0.05
761.114	0.05
761.427	0.05
761.739	0.06
762.052	0.06
762.365	0.05
762.677	0.06
762.99	0.05
763.302	0.05
763.614	0.06
763.926	0.06
764.239	0.05
764.551	0.06
764.863	0.06
765.175	0.06
765.487	0.05
765.799	0.05
766.111	0.05
766.423	0.05
766.734	0.06
767.046	0.05
767.358	0.05
767.669	0.05
767.981	0.05
768.292	0.05
768.604	0.06
768.915	0.05
769.226	0.05
769.537	0.04
769.849	0.06
770.16	0.05
770.471	0.05
770.782	0.04
771.093	0.05
771.404	0.04
771.715	0.04
772.025	0.05
772.336	0.05
772.647	0.03
772.957	0.05
773.268	0.05
773.578	0.04
773.889	0.05
774.199	0.05
774.51	0.05
774.82	0.04
775.13	0.05
775.44	0.05
775.75	0.05
776.06	0.05
776.37	0.04
776.68	0.05
776.99	0.05
777.3	0.05
777.61	0.06
777.92	0.06
778.229	0.05
778.539	0.05
778.848	0.05
779.158	0.05
779.467	0.05
779.777	0.05
780.086	0.06
780.395	0.04
780.704	0.05
781.013	0.04
781.323	0.04
781.632	0.05
781.941	0.04
782.249	0.04
782.558	0.04
782.867	0.05
783.176	0.04
783.485	0.04
783.793	0.05
784.102	0.05
784.41	0.04
784.719	0.04
785.027	0.04
785.335	0.04
785.644	0.05
785.952	0.04
786.26	0.05
786.568	0.04
786.876	0.04
787.184	0.04
787.492	0.04
787.8	0.04
788.108	0.04
788.416	0.04
788.723	0.05
789.031	0.04
789.338	0.04
789.646	0.04
789.953	0.05
790.261	0.05
790.568	0.05
790.876	0.04
791.183	0.05
791.49	0.05
791.797	0.04
792.104	0.04
792.411	0.05
792.718	0.04
793.025	0.05
793.332	0.04
793.639	0.05
793.945	0.06
794.252	0.06
794.559	0.05
794.865	0.05
795.172	0.05
795.478	0.05
795.784	0.05
796.091	0.05
796.397	0.06
796.703	0.05
797.009	0.06
797.315	0.05
797.622	0.06
797.927	0.05
798.233	0.05
798.539	0.06
798.845	0.06
799.151	0.06
799.456	0.05
799.762	0.05
800.068	0.06
800.373	0.06
800.679	0.06
800.984	0.06
801.289	0.05
801.595	0.05
801.9	0.05
802.205	0.05
802.51	0.05
802.815	0.05
803.12	0.05
803.425	0.05
803.73	0.05
804.035	0.05
804.339	0.04
804.644	0.04
804.949	0.05
805.253	0.04
805.558	0.05
805.862	0.05
806.167	0.06
806.471	0.04
806.775	0.05
807.08	0.05
807.384	0.05
807.688	0.04
807.992	0.05
808.296	0.05
808.6	0.05
808.904	0.05
809.207	0.04
809.511	0.05
809.815	0.05
810.119	0.06
810.422	0.06
810.726	0.07
811.029	0.07
811.332	0.06
811.636	0.07
811.939	0.06
812.242	0.06
812.546	0.07
812.849	0.06
813.152	0.07
813.455	0.07
813.758	0.07
814.06	0.06
814.363	0.07
814.666	0.06
814.969	0.06
815.271	0.06
815.574	0.06
815.877	0.05
816.179	0.06
816.481	0.05
816.784	0.05
817.086	0.05
817.388	0.04
817.69	0.04
817.993	0.05
818.295	0.05
818.597	0.04
818.899	0.04
819.2	0.04
819.502	0.04
819.804	0.05
820.106	0.04
820.407	0.04
820.709	0.04
821.01	0.04
821.312	0.05
821.613	0.03
821.915	0.04
822.216	0.03
822.517	0.03
822.818	0.03
823.119	0.04
823.42	0.04
823.721	0.03
824.022	0.03
824.323	0.04
824.624	0.03
824.925	0.04
825.226	0.04
825.526	0.03
825.827	0.04
826.127	0.03
826.428	0.04
826.728	0.03
827.028	0.03
827.329	0.04
827.629	0.03
827.929	0.04
828.229	0.03
828.529	0.04
828.829	0.04
829.129	0.03
829.429	0.04
829.729	0.04
830.029	0.03
830.328	0.03
830.628	0.02
830.927	0.02
831.227	0.03
831.526	0.03
831.826	0.03
832.125	0.03
832.424	0.03
832.724	0.03
833.023	0.03
833.322	0.03
833.621	0.03
833.92	0.01
834.219	0.02
834.518	0.02
834.816	0.01
835.115	0.02
835.414	0.02
835.712	0.02
836.011	0.01
836.309	0.01
836.608	0
836.906	0.01
837.205	-0
837.503	0
837.801	0
838.099	0
838.397	-0.01
838.695	-0.01
838.993	-0
839.291	-0.01
839.589	0
839.887	-0
840.184	-0
840.482	-0.01
840.78	-0.01
841.077	-0.01
841.375	-0.01
841.672	-0.01
841.969	-0.01
842.267	-0.01
842.564	-0.01
842.861	-0.01
843.158	-0.02
843.455	-0.03
843.752	-0.03
844.049	-0.03
844.346	-0.02
844.643	-0.03
844.94	-0.03
845.236	-0.02
845.533	-0.03
845.83	-0.02
846.126	-0.04
846.423	-0.04
846.719	-0.05
847.015	-0.04
847.312	-0.03
847.608	-0.04
847.904	-0.05
848.2	-0.05
848.496	-0.05
848.792	-0.04
849.088	-0.03
849.384	-0.05
849.68	-0.06
849.975	-0.05
850.271	-0.05
850.567	-0.05
850.862	-0.06
851.158	-0.06
851.453	-0.05
851.748	-0.06
852.044	-0.07
852.339	-0.06
852.634	-0.07
852.929	-0.06
853.224	-0.07
853.519	-0.07
853.814	-0.07
854.109	-0.07
854.404	-0.07
854.699	-0.07
854.994	-0.07
855.288	-0.07
855.583	-0.07
855.877	-0.08
856.172	-0.08
856.466	-0.08
856.76	-0.08
857.055	-0.08
857.349	-0.09
857.643	-0.09
857.937	-0.1
858.231	-0.09
858.525	-0.1
858.819	-0.09
859.113	-0.11
859.407	-0.11
859.701	-0.1
859.994	-0.1
860.288	-0.09
860.581	-0.1
860.875	-0.11
861.168	-0.11
861.462	-0.1
861.755	-0.1
862.048	-0.1
862.341	-0.1
862.634	-0.11
862.928	-0.1
863.221	-0.1
863.513	-0.11
863.806	-0.11
864.099	-0.12
864.392	-0.11
864.685	-0.1
864.977	-0.11
865.27	-0.12
865.562	-0.12
865.855	-0.12
866.147	-0.12
866.44	-0.12
866.732	-0.12
867.024	-0.13
867.316	-0.13
867.608	-0.13
867.9	-0.13
868.192	-0.13
868.484	-0.14
868.776	-0.13
869.068	-0.13
869.359	-0.14
869.651	-0.14
869.943	-0.15
870.234	-0.14
870.526	-0.15
870.817	-0.16
871.108	-0.13
871.4	-0.15
871.691	-0.16
871.982	-0.15
872.273	-0.17
872.564	-0.16
872.855	-0.17
873.146	-0.16
873.437	-0.17
873.728	-0.17
874.019	-0.17
874.309	-0.17
874.6	-0.16
874.89	-0.17
875.181	-0.17
875.471	-0.17
875.762	-0.17
876.052	-0.16
876.342	-0.16
876.632	-0.17
876.922	-0.17
877.213	-0.17
877.503	-0.17
877.792	-0.16
878.082	-0.16
878.372	-0.15
878.662	-0.18
878.952	-0.18
879.241	-0.16
879.531	-0.18
879.82	-0.17
880.11	-0.17
880.399	-0.18
880.688	-0.16
880.978	-0.16
881.267	-0.16
