Data from 12-12-AQDScycling_Absorbance__639__00639.txt Node

Date: Tue Dec 12 13:36:29 EST 2023
User: kyuminlee
Spectrometer: FLMS00943
Trigger mode: 0
Integration Time (sec): 1.000000E-1
Scans to average: 1
Electric dark correction enabled: true
Nonlinearity correction enabled: false
Boxcar width: 0
XAxis mode: Wavelengths
Number of Pixels in Spectrum: 2048
>>>>>Begin Spectral Data<<<<<
179.651	-0
180.037	-0
180.424	-0
180.81	-0
181.197	0.6
181.583	-0
181.97	-0.32
182.356	-0
182.743	-1.14
183.129	0.14
183.515	0.97
183.901	-2.25
184.288	0.29
184.674	-0
185.06	-1.05
185.446	-0.27
185.832	-1.02
186.218	-0
186.604	-0
186.99	-0
187.376	-0
187.762	-0.3
188.148	1.12
188.534	-0.22
188.92	0.1
189.305	0.08
189.691	0.15
190.077	0.16
190.463	0
190.848	0.27
191.234	0.04
191.619	0.05
192.005	0.12
192.391	0.11
192.776	0.18
193.161	0.07
193.547	0.19
193.932	0.05
194.318	0.06
194.703	0.22
195.088	0.07
195.473	0.25
195.859	0.16
196.244	0.16
196.629	0.09
197.014	0.13
197.399	0.19
197.784	0.14
198.169	0.15
198.554	0.15
198.939	0.12
199.324	0.17
199.709	0.19
200.094	0.14
200.478	0.01
200.863	0.13
201.248	0.11
201.633	0.19
202.017	0.19
202.402	0.18
202.787	0.08
203.171	0.09
203.556	0.16
203.94	0.28
204.325	0.24
204.709	0.13
205.093	0.11
205.478	0.16
205.862	0.2
206.246	0.2
206.631	0.12
207.015	0.12
207.399	0.18
207.783	0.21
208.167	0.18
208.551	0.31
208.935	0.15
209.319	0.17
209.703	0.14
210.087	0.36
210.471	0.12
210.855	0.14
211.239	0.28
211.623	0.17
212.007	0.18
212.39	0.22
212.774	0.09
213.158	0.2
213.541	0.34
213.925	0.26
214.309	0.33
214.692	0.41
215.076	0.31
215.459	0.21
215.842	0.25
216.226	0.33
216.609	0.27
216.993	0.1
217.376	0.57
217.759	0.24
218.142	0.28
218.525	0.71
218.909	0.35
219.292	0.24
219.675	0.25
220.058	0.52
220.441	0.66
220.824	0.51
221.207	0.64
221.59	0.58
221.973	0.53
222.355	0.64
222.738	0.76
223.121	0.62
223.504	0.6
223.886	0.59
224.269	0.72
224.652	0.67
225.034	0.7
225.417	0.75
225.799	0.88
226.182	0.96
226.564	0.76
226.947	0.78
227.329	0.76
227.711	0.99
228.094	0.85
228.476	0.85
228.858	0.78
229.24	0.8
229.623	1.01
230.005	0.9
230.387	1.01
230.769	0.86
231.151	1.07
231.533	0.96
231.915	0.95
232.297	0.96
232.679	1.14
233.061	1.02
233.442	1.04
233.824	1.01
234.206	1.13
234.588	1.05
234.969	1.12
235.351	0.95
235.733	0.98
236.114	1.2
236.496	1.03
236.877	1.09
237.259	1.08
237.64	1.12
238.022	1.08
238.403	0.95
238.784	0.96
239.165	0.94
239.547	1
239.928	1.11
240.309	1.08
240.69	1.05
241.071	1.01
241.452	1.2
241.834	1.04
242.215	1.06
242.595	1.13
242.976	1.02
243.357	1.09
243.738	1.04
244.119	1.13
244.5	1.13
244.881	1.18
245.261	1.08
245.642	1.08
246.023	1.14
246.403	1.18
246.784	1.27
247.164	1.18
247.545	1.29
247.925	1.29
248.306	1.21
248.686	1.27
249.067	1.23
249.447	1.42
249.827	1.55
250.207	1.46
250.588	1.31
250.968	1.5
251.348	1.5
251.728	1.34
252.108	1.49
252.488	1.32
252.868	1.24
253.248	1.4
253.628	1.48
254.008	1.49
254.388	1.35
254.768	1.38
255.147	1.39
255.527	1.48
255.907	1.4
256.287	1.44
256.666	1.32
257.046	1.55
257.425	1.49
257.805	1.29
258.184	1.3
258.564	1.39
258.943	1.29
259.323	1.56
259.702	1.67
260.081	1.48
260.461	1.45
260.84	1.38
261.219	1.64
261.598	1.51
261.977	1.53
262.356	1.51
262.736	1.52
263.115	1.56
263.494	1.41
263.873	1.52
264.251	1.46
264.63	1.63
265.009	1.43
265.388	1.42
265.767	1.31
266.145	1.35
266.524	1.46
266.903	1.6
267.281	1.37
267.66	1.55
268.039	1.6
268.417	1.55
268.796	1.44
269.174	1.39
269.552	1.3
269.931	1.48
270.309	1.36
270.687	1.44
271.066	1.48
271.444	1.4
271.822	1.54
272.2	1.56
272.578	1.43
272.956	1.44
273.334	1.27
273.712	1.46
274.09	1.49
274.468	1.46
274.846	1.35
275.224	1.52
275.602	1.36
275.98	1.78
276.357	1.3
276.735	1.56
277.113	1.36
277.49	1.33
277.868	1.33
278.246	1.37
278.623	1.4
279.001	1.4
279.378	1.34
279.756	1.66
280.133	1.67
280.51	1.37
280.888	1.44
281.265	1.45
281.642	1.47
282.019	1.47
282.396	1.44
282.773	1.4
283.151	1.42
283.528	1.46
283.905	1.36
284.282	1.52
284.659	1.57
285.035	1.37
285.412	1.46
285.789	1.53
286.166	1.55
286.543	1.44
286.919	1.55
287.296	1.32
287.673	1.62
288.049	1.51
288.426	1.6
288.802	1.63
289.179	1.5
289.555	1.65
289.932	1.38
290.308	1.41
290.684	1.46
291.061	1.39
291.437	1.59
291.813	1.36
292.189	1.25
292.565	1.42
292.942	1.3
293.318	1.37
293.694	1.45
294.07	1.45
294.446	1.37
294.822	1.69
295.197	1.39
295.573	1.43
295.949	1.4
296.325	1.52
296.701	1.5
297.076	1.52
297.452	1.62
297.828	1.47
298.203	1.54
298.579	1.37
298.954	1.5
299.33	1.49
299.705	1.4
300.081	1.45
300.456	1.41
300.831	1.44
301.206	1.34
301.582	1.46
301.957	1.32
302.332	1.39
302.707	1.36
303.082	1.32
303.457	1.43
303.832	1.34
304.207	1.24
304.582	1.27
304.957	1.32
305.332	1.33
305.707	1.32
306.082	1.31
306.456	1.33
306.831	1.27
307.206	1.3
307.58	1.26
307.955	1.19
308.33	1.23
308.704	1.26
309.079	1.2
309.453	1.26
309.828	1.24
310.202	1.19
310.576	1.21
310.951	1.28
311.325	1.18
311.699	1.13
312.073	1.2
312.447	1.24
312.821	1.17
313.196	1.25
313.57	1.11
313.944	1.17
314.317	1.13
314.691	1.2
315.065	1.24
315.439	1.25
315.813	1.26
316.187	1.23
316.56	1.25
316.934	1.24
317.308	1.17
317.681	1.23
318.055	1.2
318.428	1.21
318.802	1.24
319.175	1.15
319.549	1.28
319.922	1.12
320.295	1.12
320.669	1.32
321.042	1.21
321.415	1.23
321.788	1.22
322.162	1.15
322.535	1.22
322.908	1.26
323.281	1.16
323.654	1.25
324.027	1.21
324.4	1.27
324.773	1.19
325.145	1.2
325.518	1.23
325.891	1.13
326.264	1.32
326.636	1.21
327.009	1.18
327.382	1.28
327.754	1.2
328.127	1.18
328.499	1.32
328.872	1.21
329.244	1.24
329.616	1.2
329.989	1.23
330.361	1.32
330.733	1.29
331.106	1.15
331.478	1.26
331.85	1.22
332.222	1.24
332.594	1.32
332.966	1.3
333.338	1.4
333.71	1.32
334.082	1.33
334.454	1.28
334.826	1.26
335.197	1.3
335.569	1.24
335.941	1.24
336.312	1.26
336.684	1.33
337.056	1.35
337.427	1.34
337.799	1.39
338.17	1.31
338.542	1.29
338.913	1.28
339.284	1.39
339.656	1.33
340.027	1.31
340.398	1.4
340.769	1.3
341.141	1.51
341.512	1.3
341.883	1.38
342.254	1.35
342.625	1.36
342.996	1.32
343.367	1.31
343.738	1.38
344.108	1.27
344.479	1.38
344.85	1.3
345.221	1.37
345.591	1.24
345.962	1.2
346.333	1.29
346.703	1.22
347.074	1.23
347.444	1.25
347.815	1.27
348.185	1.28
348.556	1.29
348.926	1.26
349.296	1.38
349.666	1.33
350.037	1.24
350.407	1.17
350.777	1.27
351.147	1.39
351.517	1.26
351.887	1.34
352.257	1.38
352.627	1.21
352.997	1.25
353.367	1.32
353.737	1.44
354.106	1.39
354.476	1.31
354.846	1.39
355.216	1.37
355.585	1.38
355.955	1.36
356.324	1.4
356.694	1.41
357.063	1.34
357.433	1.32
357.802	1.44
358.171	1.44
358.541	1.47
358.91	1.5
359.279	1.41
359.648	1.46
360.017	1.53
360.387	1.53
360.756	1.32
361.125	1.46
361.494	1.57
361.863	1.41
362.231	1.49
362.6	1.47
362.969	1.61
363.338	1.37
363.707	1.53
364.075	1.48
364.444	1.46
364.813	1.52
365.181	1.52
365.55	1.47
365.918	1.73
366.287	1.47
366.655	1.57
367.024	1.47
367.392	1.59
367.76	1.49
368.128	1.51
368.497	1.4
368.865	1.55
369.233	1.49
369.601	1.62
369.969	1.44
370.337	1.49
370.705	1.63
371.073	1.44
371.441	1.5
371.809	1.54
372.177	1.46
372.544	1.54
372.912	1.53
373.28	1.41
373.647	1.59
374.015	1.62
374.383	1.87
374.75	1.63
375.118	1.48
375.485	1.54
375.853	1.51
376.22	1.48
376.587	1.61
376.955	1.64
377.322	1.69
377.689	1.58
378.056	1.55
378.423	1.52
378.79	1.58
379.157	1.55
379.524	1.47
379.891	1.37
380.258	1.57
380.625	1.62
380.992	1.55
381.359	1.57
381.726	1.8
382.092	1.46
382.459	1.6
382.826	1.54
383.192	1.54
383.559	1.53
383.925	1.37
384.292	1.57
384.658	1.71
385.025	1.64
385.391	1.66
385.757	1.64
386.123	1.55
386.49	1.59
386.856	1.58
387.222	1.82
387.588	1.58
387.954	1.76
388.32	1.76
388.686	1.62
389.052	1.67
389.418	1.56
389.784	1.59
390.15	1.64
390.515	1.42
390.881	1.74
391.247	1.45
391.613	1.55
391.978	1.52
392.344	1.69
392.709	1.48
393.075	1.6
393.44	1.72
393.806	1.68
394.171	1.52
394.536	1.53
394.902	1.64
395.267	1.64
395.632	1.52
395.997	1.47
396.362	1.66
396.727	1.61
397.092	1.48
397.457	1.56
397.822	1.54
398.187	1.69
398.552	1.58
398.917	1.75
399.282	1.43
399.646	1.51
400.011	1.61
400.376	1.43
400.74	1.55
401.105	1.53
401.47	1.54
401.834	1.62
402.199	1.61
402.563	1.44
402.927	1.5
403.292	1.63
403.656	1.47
404.02	1.5
404.384	1.71
404.749	1.56
405.113	1.62
405.477	1.59
405.841	1.57
406.205	1.61
406.569	1.52
406.933	1.6
407.296	1.46
407.66	1.54
408.024	1.63
408.388	1.69
408.752	1.56
409.115	1.9
409.479	1.61
409.842	1.48
410.206	1.46
410.569	1.5
410.933	1.56
411.296	1.48
411.66	1.65
412.023	1.46
412.386	1.56
412.749	1.4
413.113	1.55
413.476	1.49
413.839	1.4
414.202	1.52
414.565	1.35
414.928	1.41
415.291	1.5
415.654	1.5
416.017	1.71
416.38	1.38
416.742	1.47
417.105	1.48
417.468	1.44
417.83	1.46
418.193	1.69
418.556	1.39
418.918	1.37
419.281	1.46
419.643	1.63
420.005	1.54
420.368	1.47
420.73	1.42
421.092	1.59
421.455	1.55
421.817	1.34
422.179	1.43
422.541	1.49
422.903	1.47
423.265	1.55
423.627	1.54
423.989	1.48
424.351	1.44
424.713	1.44
425.075	1.49
425.436	1.4
425.798	1.36
426.16	1.53
426.521	1.36
426.883	1.44
427.245	1.4
427.606	1.29
427.967	1.35
428.329	1.45
428.69	1.49
429.052	1.39
429.413	1.46
429.774	1.43
430.135	1.5
430.497	1.43
430.858	1.46
431.219	1.58
431.58	1.36
431.941	1.39
432.302	1.38
432.663	1.38
433.024	1.43
433.384	1.43
433.745	1.33
434.106	1.42
434.467	1.43
434.827	1.39
435.188	1.41
435.548	1.39
435.909	1.37
436.269	1.43
436.63	1.35
436.99	1.33
437.351	1.28
437.711	1.39
438.071	1.3
438.431	1.33
438.792	1.39
439.152	1.35
439.512	1.28
439.872	1.27
440.232	1.41
440.592	1.34
440.952	1.33
441.312	1.21
441.671	1.24
442.031	1.3
442.391	1.27
442.751	1.3
443.11	1.31
443.47	1.19
443.83	1.16
444.189	1.26
444.549	1.24
444.908	1.25
445.267	1.21
445.627	1.21
445.986	1.17
446.345	1.18
446.705	1.22
447.064	1.13
447.423	1.15
447.782	1.2
448.141	1.16
448.5	1.15
448.859	1.16
449.218	1.13
449.577	1.18
449.936	1.14
450.295	1.14
450.653	1.12
451.012	1.13
451.371	1.07
451.729	1.09
452.088	1.12
452.447	1.11
452.805	1.09
453.163	1.07
453.522	1.06
453.88	1.01
454.239	1.02
454.597	1.01
454.955	1
455.313	0.99
455.671	1
456.029	0.99
456.388	0.97
456.746	0.97
457.104	0.94
457.461	0.95
457.819	0.95
458.177	0.92
458.535	0.92
458.893	0.91
459.25	0.9
459.608	0.89
459.966	0.85
460.323	0.86
460.681	0.84
461.038	0.85
461.396	0.83
461.753	0.82
462.111	0.8
462.468	0.8
462.825	0.79
463.182	0.77
463.54	0.76
463.897	0.76
464.254	0.74
464.611	0.74
464.968	0.73
465.325	0.72
465.682	0.71
466.039	0.7
466.395	0.69
466.752	0.68
467.109	0.68
467.466	0.68
467.822	0.66
468.179	0.64
468.535	0.63
468.892	0.63
469.248	0.61
469.605	0.59
469.961	0.61
470.318	0.6
470.674	0.58
471.03	0.58
471.386	0.57
471.743	0.55
472.099	0.54
472.455	0.54
472.811	0.53
473.167	0.52
473.523	0.51
473.879	0.52
474.235	0.5
474.59	0.49
474.946	0.5
475.302	0.48
475.657	0.47
476.013	0.47
476.369	0.44
476.724	0.45
477.08	0.45
477.435	0.43
477.791	0.43
478.146	0.43
478.501	0.42
478.857	0.42
479.212	0.4
479.567	0.39
479.922	0.39
480.277	0.38
480.632	0.38
480.987	0.37
481.342	0.37
481.697	0.36
482.052	0.35
482.407	0.35
482.762	0.34
483.116	0.34
483.471	0.33
483.826	0.31
484.18	0.32
484.535	0.31
484.89	0.31
485.244	0.31
485.598	0.3
485.953	0.3
486.307	0.3
486.661	0.3
487.016	0.29
487.37	0.28
487.724	0.28
488.078	0.28
488.432	0.28
488.786	0.27
489.14	0.27
489.494	0.26
489.848	0.25
490.202	0.25
490.556	0.25
490.91	0.25
491.263	0.24
491.617	0.24
491.971	0.24
492.324	0.23
492.678	0.24
493.031	0.24
493.385	0.23
493.738	0.23
494.091	0.23
494.445	0.23
494.798	0.22
495.151	0.22
495.504	0.22
495.857	0.22
496.21	0.22
496.564	0.2
496.916	0.2
497.269	0.2
497.622	0.21
497.975	0.2
498.328	0.19
498.681	0.2
499.033	0.19
499.386	0.18
499.739	0.19
500.091	0.19
500.444	0.19
500.796	0.18
501.149	0.19
501.501	0.19
501.854	0.18
502.206	0.18
502.558	0.18
502.91	0.18
503.263	0.17
503.615	0.18
503.967	0.18
504.319	0.18
504.671	0.17
505.023	0.17
505.375	0.17
505.726	0.17
506.078	0.17
506.43	0.16
506.782	0.17
507.133	0.17
507.485	0.17
507.837	0.17
508.188	0.17
508.54	0.17
508.891	0.17
509.243	0.17
509.594	0.16
509.945	0.16
510.296	0.15
510.648	0.16
510.999	0.16
511.35	0.16
511.701	0.16
512.052	0.17
512.403	0.17
512.754	0.16
513.105	0.16
513.456	0.16
513.807	0.16
514.157	0.16
514.508	0.16
514.859	0.15
515.209	0.15
515.56	0.16
515.91	0.15
516.261	0.16
516.611	0.16
516.962	0.16
517.312	0.16
517.662	0.16
518.013	0.16
518.363	0.16
518.713	0.16
519.063	0.16
519.413	0.16
519.763	0.16
520.113	0.15
520.463	0.16
520.813	0.16
521.163	0.16
521.512	0.17
521.862	0.16
522.212	0.16
522.562	0.16
522.911	0.15
523.261	0.16
523.61	0.16
523.96	0.16
524.309	0.16
524.658	0.17
525.008	0.16
525.357	0.16
525.706	0.16
526.056	0.16
526.405	0.16
526.754	0.16
527.103	0.15
527.452	0.15
527.801	0.16
528.15	0.16
528.499	0.16
528.847	0.16
529.196	0.17
529.545	0.16
529.893	0.16
530.242	0.16
530.591	0.16
530.939	0.17
531.288	0.16
531.636	0.17
531.985	0.17
532.333	0.16
532.681	0.16
533.029	0.16
533.378	0.17
533.726	0.16
534.074	0.17
534.422	0.16
534.77	0.17
535.118	0.17
535.466	0.17
535.814	0.16
536.162	0.17
536.509	0.17
536.857	0.17
537.205	0.17
537.552	0.17
537.9	0.17
538.248	0.16
538.595	0.16
538.943	0.16
539.29	0.17
539.637	0.17
539.985	0.17
540.332	0.17
540.679	0.16
541.026	0.16
541.373	0.18
541.721	0.16
542.068	0.16
542.415	0.17
542.762	0.16
543.108	0.15
543.455	0.16
543.802	0.16
544.149	0.16
544.496	0.16
544.842	0.15
545.189	0.15
545.535	0.15
545.882	0.15
546.228	0.15
546.575	0.15
546.921	0.15
547.267	0.15
547.614	0.16
547.96	0.16
548.306	0.16
548.652	0.16
548.998	0.16
549.344	0.16
549.69	0.16
550.036	0.16
550.382	0.15
550.728	0.16
551.074	0.16
551.42	0.16
551.765	0.16
552.111	0.16
552.457	0.16
552.802	0.16
553.148	0.16
553.493	0.16
553.839	0.16
554.184	0.16
554.529	0.16
554.875	0.16
555.22	0.17
555.565	0.16
555.91	0.16
556.255	0.17
556.6	0.17
556.945	0.16
557.29	0.16
557.635	0.17
557.98	0.17
558.325	0.17
558.67	0.17
559.014	0.16
559.359	0.16
559.704	0.17
560.048	0.15
560.393	0.17
560.737	0.15
561.082	0.16
561.426	0.15
561.77	0.16
562.115	0.15
562.459	0.16
562.803	0.16
563.147	0.16
563.491	0.16
563.835	0.17
564.179	0.16
564.523	0.16
564.867	0.16
565.211	0.17
565.555	0.17
565.899	0.17
566.242	0.16
566.586	0.16
566.93	0.16
567.273	0.16
567.617	0.17
567.96	0.17
568.304	0.17
568.647	0.16
568.99	0.17
569.334	0.17
569.677	0.16
570.02	0.17
570.363	0.17
570.706	0.17
571.049	0.16
571.392	0.17
571.735	0.17
572.078	0.17
572.421	0.17
572.764	0.17
573.106	0.16
573.449	0.16
573.792	0.17
574.134	0.17
574.477	0.17
574.819	0.16
575.162	0.17
575.504	0.16
575.847	0.16
576.189	0.17
576.531	0.16
576.873	0.16
577.215	0.17
577.558	0.16
577.9	0.16
578.242	0.16
578.584	0.16
578.926	0.17
579.267	0.17
579.609	0.16
579.951	0.16
580.293	0.16
580.634	0.16
580.976	0.17
581.318	0.16
581.659	0.16
582.001	0.16
582.342	0.16
582.683	0.17
583.025	0.15
583.366	0.16
583.707	0.16
584.049	0.16
584.39	0.16
584.731	0.15
585.072	0.15
585.413	0.16
585.754	0.16
586.095	0.16
586.435	0.16
586.776	0.16
587.117	0.15
587.458	0.16
587.798	0.16
588.139	0.17
588.48	0.15
588.82	0.15
589.161	0.15
589.501	0.15
589.841	0.15
590.182	0.16
590.522	0.15
590.862	0.16
591.202	0.16
591.542	0.15
591.882	0.16
592.222	0.16
592.562	0.16
592.902	0.16
593.242	0.16
593.582	0.16
593.922	0.16
594.261	0.16
594.601	0.16
594.941	0.16
595.28	0.15
595.62	0.16
595.959	0.16
596.299	0.15
596.638	0.16
596.977	0.16
597.317	0.16
597.656	0.16
597.995	0.16
598.334	0.16
598.673	0.16
599.012	0.16
599.351	0.17
599.69	0.16
600.029	0.17
600.368	0.17
600.707	0.16
601.046	0.16
601.384	0.17
601.723	0.16
602.061	0.16
602.4	0.17
602.738	0.16
603.077	0.16
603.415	0.16
603.754	0.16
604.092	0.16
604.43	0.16
604.768	0.16
605.107	0.17
605.445	0.16
605.783	0.16
606.121	0.16
606.459	0.16
606.796	0.16
607.134	0.15
607.472	0.15
607.81	0.16
608.148	0.15
608.485	0.16
608.823	0.15
609.16	0.15
609.498	0.16
609.835	0.15
610.173	0.15
610.51	0.16
610.847	0.16
611.185	0.15
611.522	0.15
611.859	0.16
612.196	0.16
612.533	0.15
612.87	0.16
613.207	0.17
613.544	0.16
613.881	0.17
614.217	0.16
614.554	0.16
614.891	0.16
615.228	0.16
615.564	0.16
615.901	0.16
616.237	0.16
616.574	0.16
616.91	0.16
617.246	0.16
617.583	0.17
617.919	0.17
618.255	0.17
618.591	0.15
618.927	0.16
619.263	0.16
619.599	0.16
619.935	0.17
620.271	0.16
620.607	0.16
620.943	0.16
621.279	0.17
621.614	0.17
621.95	0.16
622.286	0.16
622.621	0.16
622.957	0.16
623.292	0.16
623.627	0.16
623.963	0.15
624.298	0.16
624.633	0.15
624.968	0.15
625.304	0.15
625.639	0.15
625.974	0.15
626.309	0.15
626.644	0.15
626.979	0.15
627.313	0.15
627.648	0.15
627.983	0.15
628.318	0.14
628.652	0.15
628.987	0.15
629.321	0.15
629.656	0.14
629.99	0.14
630.325	0.15
630.659	0.14
630.993	0.14
631.327	0.14
631.662	0.13
631.996	0.13
632.33	0.13
632.664	0.15
632.998	0.14
633.332	0.14
633.666	0.14
633.999	0.14
634.333	0.13
634.667	0.14
635.001	0.14
635.334	0.14
635.668	0.13
636.001	0.13
636.335	0.14
636.668	0.14
637.001	0.13
637.335	0.14
637.668	0.14
638.001	0.14
638.334	0.14
638.668	0.13
639.001	0.13
639.334	0.13
639.667	0.13
639.999	0.14
640.332	0.13
640.665	0.13
640.998	0.14
641.331	0.14
641.663	0.13
641.996	0.13
642.328	0.14
642.661	0.14
642.993	0.13
643.326	0.14
643.658	0.13
643.99	0.12
644.323	0.13
644.655	0.13
644.987	0.14
645.319	0.14
645.651	0.14
645.983	0.12
646.315	0.12
646.647	0.14
646.979	0.14
647.31	0.14
647.642	0.14
647.974	0.12
648.305	0.14
648.637	0.13
648.968	0.13
649.3	0.14
649.631	0.14
649.963	0.13
650.294	0.13
650.625	0.13
650.957	0.13
651.288	0.13
651.619	0.14
651.95	0.14
652.281	0.13
652.612	0.13
652.943	0.14
653.274	0.14
653.604	0.13
653.935	0.13
654.266	0.14
654.596	0.14
654.927	0.13
655.258	0.13
655.588	0.13
655.918	0.13
656.249	0.11
656.579	0.13
656.909	0.12
657.24	0.12
657.57	0.13
657.9	0.13
658.23	0.13
658.56	0.14
658.89	0.13
659.22	0.12
659.55	0.13
659.88	0.13
660.209	0.13
660.539	0.14
660.869	0.14
661.198	0.13
661.528	0.13
661.857	0.13
662.187	0.12
662.516	0.13
662.846	0.12
663.175	0.12
663.504	0.13
663.833	0.12
664.163	0.12
664.492	0.12
664.821	0.12
665.15	0.12
665.479	0.13
665.807	0.12
666.136	0.13
666.465	0.13
666.794	0.13
667.122	0.13
667.451	0.13
667.78	0.13
668.108	0.13
668.437	0.13
668.765	0.13
669.093	0.13
669.422	0.13
669.75	0.13
670.078	0.12
670.406	0.13
670.734	0.14
671.062	0.12
671.39	0.12
671.718	0.12
672.046	0.12
672.374	0.12
672.702	0.12
673.029	0.12
673.357	0.12
673.685	0.13
674.012	0.12
674.34	0.12
674.667	0.13
674.995	0.12
675.322	0.12
675.649	0.12
675.977	0.12
676.304	0.12
676.631	0.11
676.958	0.12
677.285	0.12
677.612	0.11
677.939	0.11
678.266	0.11
678.593	0.11
678.92	0.11
679.246	0.11
679.573	0.12
679.9	0.11
680.226	0.12
680.553	0.11
680.879	0.12
681.206	0.12
681.532	0.11
681.858	0.12
682.184	0.11
682.511	0.12
682.837	0.11
683.163	0.12
683.489	0.12
683.815	0.12
684.141	0.12
684.467	0.12
684.793	0.11
685.118	0.11
685.444	0.11
685.77	0.1
686.095	0.11
686.421	0.11
686.746	0.11
687.072	0.11
687.397	0.11
687.723	0.11
688.048	0.11
688.373	0.11
688.698	0.11
689.023	0.11
689.349	0.11
689.674	0.11
689.999	0.1
690.323	0.1
690.648	0.11
690.973	0.1
691.298	0.1
691.623	0.1
691.947	0.11
692.272	0.1
692.596	0.1
692.921	0.11
693.245	0.11
693.57	0.11
693.894	0.12
694.218	0.11
694.543	0.11
694.867	0.11
695.191	0.1
695.515	0.1
695.839	0.1
696.163	0.1
696.487	0.11
696.811	0.11
697.135	0.11
697.458	0.11
697.782	0.11
698.106	0.11
698.429	0.11
698.753	0.11
699.076	0.11
699.4	0.11
699.723	0.1
700.046	0.1
700.37	0.1
700.693	0.11
701.016	0.1
701.339	0.1
701.662	0.11
701.985	0.11
702.308	0.1
702.631	0.11
702.954	0.11
703.277	0.1
703.599	0.1
703.922	0.1
704.245	0.1
704.567	0.09
704.89	0.1
705.212	0.1
705.535	0.1
705.857	0.09
706.179	0.09
706.502	0.09
706.824	0.09
707.146	0.09
707.468	0.09
707.79	0.1
708.112	0.09
708.434	0.1
708.756	0.1
709.078	0.09
709.399	0.09
709.721	0.1
710.043	0.1
710.364	0.1
710.686	0.1
711.007	0.09
711.329	0.1
711.65	0.1
711.972	0.1
712.293	0.1
712.614	0.1
712.935	0.1
713.256	0.1
713.577	0.11
713.898	0.09
714.219	0.09
714.54	0.09
714.861	0.08
715.182	0.1
715.503	0.09
715.823	0.09
716.144	0.08
716.464	0.08
716.785	0.08
717.105	0.08
717.426	0.09
717.746	0.08
718.066	0.09
718.387	0.08
718.707	0.08
719.027	0.09
719.347	0.08
719.667	0.09
719.987	0.08
720.307	0.08
720.627	0.08
720.947	0.08
721.266	0.08
721.586	0.08
721.906	0.08
722.225	0.08
722.545	0.08
722.864	0.08
723.184	0.09
723.503	0.08
723.823	0.08
724.142	0.08
724.461	0.07
724.78	0.09
725.099	0.08
725.418	0.08
725.737	0.08
726.056	0.09
726.375	0.08
726.694	0.08
727.013	0.08
727.331	0.07
727.65	0.08
727.969	0.08
728.287	0.08
728.606	0.08
728.924	0.08
729.242	0.08
729.561	0.08
729.879	0.08
730.197	0.08
730.515	0.08
730.834	0.08
731.152	0.08
731.47	0.08
731.788	0.09
732.105	0.07
732.423	0.08
732.741	0.07
733.059	0.08
733.376	0.08
733.694	0.08
734.012	0.08
734.329	0.09
734.647	0.08
734.964	0.09
735.281	0.08
735.599	0.09
735.916	0.09
736.233	0.09
736.55	0.09
736.867	0.08
737.184	0.09
737.501	0.08
737.818	0.08
738.135	0.09
738.452	0.08
738.768	0.08
739.085	0.08
739.402	0.07
739.718	0.08
740.035	0.08
740.351	0.08
740.668	0.08
740.984	0.08
741.3	0.07
741.617	0.08
741.933	0.07
742.249	0.08
742.565	0.08
742.881	0.09
743.197	0.08
743.513	0.08
743.829	0.07
744.144	0.07
744.46	0.07
744.776	0.07
745.091	0.08
745.407	0.07
745.722	0.07
746.038	0.07
746.353	0.06
746.669	0.07
746.984	0.06
747.299	0.06
747.614	0.06
747.93	0.07
748.245	0.06
748.56	0.07
748.875	0.06
749.189	0.07
749.504	0.07
749.819	0.07
750.134	0.06
750.448	0.06
750.763	0.06
751.078	0.06
751.392	0.07
751.707	0.08
752.021	0.08
752.335	0.07
752.65	0.07
752.964	0.06
753.278	0.07
753.592	0.07
753.906	0.07
754.22	0.07
754.534	0.07
754.848	0.07
755.162	0.07
755.476	0.07
755.789	0.07
756.103	0.07
756.417	0.08
756.73	0.08
757.044	0.07
757.357	0.07
757.671	0.07
757.984	0.08
758.297	0.07
758.61	0.07
758.924	0.08
759.237	0.06
759.55	0.07
759.863	0.07
760.176	0.07
760.488	0.07
760.801	0.07
761.114	0.07
761.427	0.07
761.739	0.07
762.052	0.06
762.365	0.06
762.677	0.06
762.99	0.06
763.302	0.06
763.614	0.07
763.926	0.06
764.239	0.06
764.551	0.06
764.863	0.06
765.175	0.07
765.487	0.06
765.799	0.06
766.111	0.06
766.423	0.06
766.734	0.06
767.046	0.06
767.358	0.07
767.669	0.07
767.981	0.06
768.292	0.06
768.604	0.07
768.915	0.06
769.226	0.06
769.537	0.06
769.849	0.07
770.16	0.05
770.471	0.06
770.782	0.06
771.093	0.06
771.404	0.05
771.715	0.05
772.025	0.06
772.336	0.06
772.647	0.05
772.957	0.06
773.268	0.06
773.578	0.06
773.889	0.07
774.199	0.07
774.51	0.07
774.82	0.06
775.13	0.07
775.44	0.06
775.75	0.07
776.06	0.07
776.37	0.06
776.68	0.07
776.99	0.07
777.3	0.06
777.61	0.07
777.92	0.06
778.229	0.07
778.539	0.06
778.848	0.06
779.158	0.06
779.467	0.06
779.777	0.06
780.086	0.06
780.395	0.05
780.704	0.06
781.013	0.05
781.323	0.05
781.632	0.06
781.941	0.05
782.249	0.06
782.558	0.05
782.867	0.06
783.176	0.05
783.485	0.05
783.793	0.06
784.102	0.05
784.41	0.05
784.719	0.05
785.027	0.05
785.335	0.06
785.644	0.06
785.952	0.06
786.26	0.06
786.568	0.05
786.876	0.05
787.184	0.06
787.492	0.06
787.8	0.05
788.108	0.06
788.416	0.05
788.723	0.06
789.031	0.05
789.338	0.05
789.646	0.05
789.953	0.06
790.261	0.06
790.568	0.05
790.876	0.06
791.183	0.06
791.49	0.06
791.797	0.05
792.104	0.05
792.411	0.06
792.718	0.05
793.025	0.06
793.332	0.05
793.639	0.07
793.945	0.07
794.252	0.06
794.559	0.06
794.865	0.07
795.172	0.06
795.478	0.06
795.784	0.06
796.091	0.06
796.397	0.06
796.703	0.06
797.009	0.07
797.315	0.06
797.622	0.06
797.927	0.06
798.233	0.06
798.539	0.07
798.845	0.07
799.151	0.06
799.456	0.07
799.762	0.06
800.068	0.06
800.373	0.08
800.679	0.07
800.984	0.07
801.289	0.06
801.595	0.07
801.9	0.07
802.205	0.06
802.51	0.06
802.815	0.07
803.12	0.07
803.425	0.06
803.73	0.06
804.035	0.07
804.339	0.06
804.644	0.06
804.949	0.07
805.253	0.06
805.558	0.06
805.862	0.06
806.167	0.06
806.471	0.05
806.775	0.06
807.08	0.05
807.384	0.05
807.688	0.06
807.992	0.06
808.296	0.05
808.6	0.06
808.904	0.06
809.207	0.06
809.511	0.07
809.815	0.06
810.119	0.06
810.422	0.06
810.726	0.07
811.029	0.07
811.332	0.07
811.636	0.07
811.939	0.06
812.242	0.07
812.546	0.06
812.849	0.07
813.152	0.07
813.455	0.07
813.758	0.08
814.06	0.07
814.363	0.07
814.666	0.07
814.969	0.08
815.271	0.07
815.574	0.06
815.877	0.07
816.179	0.07
816.481	0.07
816.784	0.07
817.086	0.06
817.388	0.05
817.69	0.05
817.993	0.06
818.295	0.06
818.597	0.06
818.899	0.05
819.2	0.04
819.502	0.05
819.804	0.05
820.106	0.04
820.407	0.04
820.709	0.05
821.01	0.06
821.312	0.05
821.613	0.04
821.915	0.04
822.216	0.04
822.517	0.03
822.818	0.04
823.119	0.05
823.42	0.04
823.721	0.03
824.022	0.04
824.323	0.05
824.624	0.04
824.925	0.05
825.226	0.05
825.526	0.04
825.827	0.04
826.127	0.06
826.428	0.05
826.728	0.03
827.028	0.04
827.329	0.04
827.629	0.03
827.929	0.04
828.229	0.04
828.529	0.04
828.829	0.04
829.129	0.04
829.429	0.04
829.729	0.03
830.029	0.03
830.328	0.05
830.628	0.03
830.927	0.03
831.227	0.03
831.526	0.04
831.826	0.04
832.125	0.04
832.424	0.03
832.724	0.04
833.023	0.03
833.322	0.04
833.621	0.03
833.92	0.03
834.219	0.03
834.518	0.04
834.816	0.02
835.115	0.03
835.414	0.03
835.712	0.02
836.011	0.02
836.309	0.02
836.608	0.02
836.906	0.01
837.205	0.02
837.503	0.02
837.801	0
838.099	0
838.397	-0.01
838.695	-0.01
838.993	0
839.291	-0.01
839.589	0
839.887	0
840.184	-0.02
840.482	-0.01
840.78	-0
841.077	-0.01
841.375	-0.01
841.672	-0
841.969	-0.01
842.267	-0
842.564	-0
842.861	-0
843.158	-0
843.455	-0.03
843.752	-0.01
844.049	-0.02
844.346	-0.02
844.643	-0.02
844.94	-0.02
845.236	-0.01
845.533	-0.02
845.83	-0.02
846.126	-0.02
846.423	-0.02
846.719	-0.02
847.015	-0.03
847.312	-0.03
847.608	-0.03
847.904	-0.03
848.2	-0.04
848.496	-0.03
848.792	-0.03
849.088	-0.02
849.384	-0.03
849.68	-0.04
849.975	-0.03
850.271	-0.03
850.567	-0.04
850.862	-0.04
851.158	-0.04
851.453	-0.03
851.748	-0.05
852.044	-0.04
852.339	-0.04
852.634	-0.05
852.929	-0.04
853.224	-0.06
853.519	-0.05
853.814	-0.04
854.109	-0.05
854.404	-0.06
854.699	-0.05
854.994	-0.05
855.288	-0.05
855.583	-0.05
855.877	-0.06
856.172	-0.06
856.466	-0.06
856.76	-0.06
857.055	-0.06
857.349	-0.08
857.643	-0.08
857.937	-0.08
858.231	-0.08
858.525	-0.1
858.819	-0.09
859.113	-0.1
859.407	-0.1
859.701	-0.1
859.994	-0.1
860.288	-0.09
860.581	-0.1
860.875	-0.1
861.168	-0.11
861.462	-0.1
861.755	-0.09
862.048	-0.11
862.341	-0.1
862.634	-0.1
862.928	-0.1
863.221	-0.1
863.513	-0.11
863.806	-0.1
864.099	-0.11
864.392	-0.11
864.685	-0.11
864.977	-0.1
865.27	-0.12
865.562	-0.11
865.855	-0.1
866.147	-0.11
866.44	-0.1
866.732	-0.11
867.024	-0.12
867.316	-0.12
867.608	-0.13
867.9	-0.12
868.192	-0.11
868.484	-0.12
868.776	-0.12
869.068	-0.12
869.359	-0.12
869.651	-0.13
869.943	-0.14
870.234	-0.14
870.526	-0.14
870.817	-0.14
871.108	-0.12
871.4	-0.13
871.691	-0.14
871.982	-0.14
872.273	-0.15
872.564	-0.14
872.855	-0.15
873.146	-0.16
873.437	-0.15
873.728	-0.16
874.019	-0.15
874.309	-0.15
874.6	-0.16
874.89	-0.16
875.181	-0.16
875.471	-0.15
875.762	-0.15
876.052	-0.16
876.342	-0.15
876.632	-0.14
876.922	-0.17
877.213	-0.17
877.503	-0.17
877.792	-0.17
878.082	-0.17
878.372	-0.16
878.662	-0.17
878.952	-0.17
879.241	-0.17
879.531	-0.15
879.82	-0.17
880.11	-0.15
880.399	-0.16
880.688	-0.14
880.978	-0.14
881.267	-0.14
