Data from 12-12-AQDScycling_Absorbance__59__00059.txt Node

Date: Tue Dec 12 11:11:29 EST 2023
User: kyuminlee
Spectrometer: FLMS00943
Trigger mode: 0
Integration Time (sec): 1.000000E-1
Scans to average: 1
Electric dark correction enabled: true
Nonlinearity correction enabled: false
Boxcar width: 0
XAxis mode: Wavelengths
Number of Pixels in Spectrum: 2048
>>>>>Begin Spectral Data<<<<<
179.651	0.19
180.037	0.19
180.424	0.19
180.81	0.2
181.197	0.19
181.583	-0
181.97	-0
182.356	-0
182.743	-0
183.129	0.3
183.515	0.27
183.901	-2.66
184.288	0.36
184.674	-0
185.06	-0.24
185.446	-0
185.832	-0.95
186.218	0.45
186.604	0.4
186.99	-0
187.376	0.4
187.762	-0
188.148	-0
188.534	-0.03
188.92	0.12
189.305	0.11
189.691	0.18
190.077	0.38
190.463	0.17
190.848	0.21
191.234	0.2
191.619	0.17
192.005	0.14
192.391	0.24
192.776	0.14
193.161	0.18
193.547	0.18
193.932	0.07
194.318	0.01
194.703	0.59
195.088	0.3
195.473	0.19
195.859	0.17
196.244	0.38
196.629	0.06
197.014	0.21
197.399	0.25
197.784	0.23
198.169	0.22
198.554	0.25
198.939	0.15
199.324	0.17
199.709	0.11
200.094	0.13
200.478	0.15
200.863	0.16
201.248	0.24
201.633	0.17
202.017	0.03
202.402	0.32
202.787	0.17
203.171	0.18
203.556	0.38
203.94	0.17
204.325	0.18
204.709	0.31
205.093	0.17
205.478	0.22
205.862	0.05
206.246	0.24
206.631	0.28
207.015	0.1
207.399	0.25
207.783	0.24
208.167	0.18
208.551	0.22
208.935	0.27
209.319	0.2
209.703	0.29
210.087	0.26
210.471	0.22
210.855	0.29
211.239	0.4
211.623	0.23
212.007	0.22
212.39	0.32
212.774	0.37
213.158	0.14
213.541	0.32
213.925	0.4
214.309	0.27
214.692	0.41
215.076	0.2
215.459	0.21
215.842	0.1
216.226	0.23
216.609	0.48
216.993	0.23
217.376	0.42
217.759	0.2
218.142	0.32
218.525	0.57
218.909	0.38
219.292	0.43
219.675	0.68
220.058	0.72
220.441	0.58
220.824	0.53
221.207	0.52
221.59	0.64
221.973	0.54
222.355	0.58
222.738	0.7
223.121	0.68
223.504	0.57
223.886	0.53
224.269	0.72
224.652	0.74
225.034	0.92
225.417	0.7
225.799	0.8
226.182	0.78
226.564	1
226.947	0.87
227.329	0.81
227.711	0.98
228.094	1.08
228.476	0.89
228.858	0.92
229.24	0.93
229.623	0.92
230.005	0.9
230.387	1.03
230.769	0.78
231.151	1.09
231.533	1.04
231.915	1.05
232.297	1.08
232.679	1.14
233.061	1
233.442	1.08
233.824	1.07
234.206	1.15
234.588	1.19
234.969	1.15
235.351	1.09
235.733	1.14
236.114	1.28
236.496	1.04
236.877	1.1
237.259	1.19
237.64	1.16
238.022	1.05
238.403	1.19
238.784	1.05
239.165	1.12
239.547	1.19
239.928	1.21
240.309	1.07
240.69	1.03
241.071	1.22
241.452	1.15
241.834	1.34
242.215	1.35
242.595	1.05
242.976	1.09
243.357	1.16
243.738	1.11
244.119	1.34
244.5	1.17
244.881	1.23
245.261	1.34
245.642	1.13
246.023	1.24
246.403	1.25
246.784	1.3
247.164	1.36
247.545	1.18
247.925	1.33
248.306	1.32
248.686	1.39
249.067	1.38
249.447	1.5
249.827	1.57
250.207	1.46
250.588	1.4
250.968	1.43
251.348	1.34
251.728	1.38
252.108	1.47
252.488	1.52
252.868	1.45
253.248	1.5
253.628	1.54
254.008	1.65
254.388	1.35
254.768	1.51
255.147	1.4
255.527	1.51
255.907	1.46
256.287	1.32
256.666	1.53
257.046	1.54
257.425	1.54
257.805	1.35
258.184	1.35
258.564	1.44
258.943	1.4
259.323	1.82
259.702	1.51
260.081	1.71
260.461	1.52
260.84	1.54
261.219	1.7
261.598	1.52
261.977	1.42
262.356	1.61
262.736	1.5
263.115	1.66
263.494	1.56
263.873	1.56
264.251	1.53
264.63	1.53
265.009	1.48
265.388	1.42
265.767	1.26
266.145	1.51
266.524	1.46
266.903	1.56
267.281	1.48
267.66	1.61
268.039	1.41
268.417	1.51
268.796	1.45
269.174	1.55
269.552	1.36
269.931	1.48
270.309	1.36
270.687	1.79
271.066	1.53
271.444	1.36
271.822	1.49
272.2	1.78
272.578	1.32
272.956	1.42
273.334	1.42
273.712	1.39
274.09	1.53
274.468	1.42
274.846	1.37
275.224	1.39
275.602	1.38
275.98	1.69
276.357	1.49
276.735	1.43
277.113	1.47
277.49	1.39
277.868	1.32
278.246	1.49
278.623	1.45
279.001	1.54
279.378	1.41
279.756	1.51
280.133	1.56
280.51	1.33
280.888	1.48
281.265	1.54
281.642	1.58
282.019	1.53
282.396	1.59
282.773	1.47
283.151	1.46
283.528	1.46
283.905	1.48
284.282	1.93
284.659	1.78
285.035	1.42
285.412	1.34
285.789	1.6
286.166	1.51
286.543	1.51
286.919	1.4
287.296	1.5
287.673	1.58
288.049	1.69
288.426	1.97
288.802	1.56
289.179	1.57
289.555	1.79
289.932	1.49
290.308	1.37
290.684	1.35
291.061	1.37
291.437	1.79
291.813	1.35
292.189	1.36
292.565	1.42
292.942	1.27
293.318	1.39
293.694	1.61
294.07	1.32
294.446	1.39
294.822	1.53
295.197	1.46
295.573	1.53
295.949	1.42
296.325	1.51
296.701	1.56
297.076	1.54
297.452	1.53
297.828	1.52
298.203	1.79
298.579	1.48
298.954	1.5
299.33	1.53
299.705	1.51
300.081	1.47
300.456	1.55
300.831	1.46
301.206	1.47
301.582	1.68
301.957	1.64
302.332	1.6
302.707	1.49
303.082	1.37
303.457	1.46
303.832	1.39
304.207	1.47
304.582	1.52
304.957	1.43
305.332	1.54
305.707	1.4
306.082	1.43
306.456	1.44
306.831	1.46
307.206	1.39
307.58	1.39
307.955	1.33
308.33	1.37
308.704	1.4
309.079	1.33
309.453	1.6
309.828	1.41
310.202	1.47
310.576	1.29
310.951	1.46
311.325	1.45
311.699	1.3
312.073	1.32
312.447	1.4
312.821	1.39
313.196	1.5
313.57	1.35
313.944	1.32
314.317	1.31
314.691	1.46
315.065	1.47
315.439	1.46
315.813	1.42
316.187	1.3
316.56	1.5
316.934	1.42
317.308	1.38
317.681	1.38
318.055	1.4
318.428	1.44
318.802	1.37
319.175	1.31
319.549	1.46
319.922	1.31
320.295	1.39
320.669	1.55
321.042	1.58
321.415	1.55
321.788	1.45
322.162	1.4
322.535	1.52
322.908	1.68
323.281	1.46
323.654	1.54
324.027	1.47
324.4	1.65
324.773	1.43
325.145	1.5
325.518	1.41
325.891	1.42
326.264	1.55
326.636	1.46
327.009	1.52
327.382	1.57
327.754	1.44
328.127	1.4
328.499	1.41
328.872	1.58
329.244	1.46
329.616	1.4
329.989	1.34
330.361	1.51
330.733	1.44
331.106	1.36
331.478	1.53
331.85	1.47
332.222	1.43
332.594	1.53
332.966	1.58
333.338	1.48
333.71	1.51
334.082	1.6
334.454	1.38
334.826	1.37
335.197	1.49
335.569	1.62
335.941	1.37
336.312	1.41
336.684	1.49
337.056	1.42
337.427	1.53
337.799	1.53
338.17	1.45
338.542	1.49
338.913	1.62
339.284	1.65
339.656	1.57
340.027	1.51
340.398	1.5
340.769	1.52
341.141	1.56
341.512	1.5
341.883	1.48
342.254	1.47
342.625	1.49
342.996	1.43
343.367	1.45
343.738	1.6
344.108	1.41
344.479	1.56
344.85	1.31
345.221	1.43
345.591	1.47
345.962	1.48
346.333	1.41
346.703	1.3
347.074	1.32
347.444	1.28
347.815	1.35
348.185	1.44
348.556	1.38
348.926	1.31
349.296	1.42
349.666	1.38
350.037	1.23
350.407	1.3
350.777	1.43
351.147	1.41
351.517	1.42
351.887	1.39
352.257	1.36
352.627	1.24
352.997	1.31
353.367	1.43
353.737	1.5
354.106	1.49
354.476	1.27
354.846	1.42
355.216	1.42
355.585	1.45
355.955	1.39
356.324	1.48
356.694	1.34
357.063	1.36
357.433	1.45
357.802	1.45
358.171	1.49
358.541	1.44
358.91	1.34
359.279	1.55
359.648	1.46
360.017	1.36
360.387	1.41
360.756	1.32
361.125	1.36
361.494	1.49
361.863	1.36
362.231	1.34
362.6	1.29
362.969	1.34
363.338	1.3
363.707	1.41
364.075	1.37
364.444	1.21
364.813	1.4
365.181	1.32
365.55	1.34
365.918	1.41
366.287	1.38
366.655	1.4
367.024	1.42
367.392	1.49
367.76	1.41
368.128	1.38
368.497	1.38
368.865	1.37
369.233	1.39
369.601	1.35
369.969	1.42
370.337	1.48
370.705	1.37
371.073	1.4
371.441	1.44
371.809	1.34
372.177	1.42
372.544	1.45
372.912	1.48
373.28	1.49
373.647	1.44
374.015	1.53
374.383	1.6
374.75	1.58
375.118	1.48
375.485	1.46
375.853	1.53
376.22	1.48
376.587	1.45
376.955	1.47
377.322	1.52
377.689	1.59
378.056	1.42
378.423	1.49
378.79	1.44
379.157	1.5
379.524	1.56
379.891	1.52
380.258	1.48
380.625	1.53
380.992	1.44
381.359	1.63
381.726	1.68
382.092	1.41
382.459	1.55
382.826	1.55
383.192	1.49
383.559	1.48
383.925	1.66
384.292	1.45
384.658	1.64
385.025	1.58
385.391	1.68
385.757	1.68
386.123	1.58
386.49	1.5
386.856	1.75
387.222	1.77
387.588	1.58
387.954	1.66
388.32	1.57
388.686	1.52
389.052	1.55
389.418	1.54
389.784	1.46
390.15	1.63
390.515	1.41
390.881	1.75
391.247	1.57
391.613	1.62
391.978	1.51
392.344	1.67
392.709	1.63
393.075	1.81
393.44	1.65
393.806	1.73
394.171	1.45
394.536	1.54
394.902	1.58
395.267	1.47
395.632	1.46
395.997	1.45
396.362	1.52
396.727	1.5
397.092	1.48
397.457	1.54
397.822	1.45
398.187	1.59
398.552	1.53
398.917	1.68
399.282	1.56
399.646	1.43
400.011	1.57
400.376	1.48
400.74	1.43
401.105	1.53
401.47	1.61
401.834	1.58
402.199	1.54
402.563	1.63
402.927	1.53
403.292	1.6
403.656	1.57
404.02	1.49
404.384	1.61
404.749	1.53
405.113	1.48
405.477	1.63
405.841	1.56
406.205	1.49
406.569	1.43
406.933	1.38
407.296	1.44
407.66	1.43
408.024	1.43
408.388	1.48
408.752	1.46
409.115	1.54
409.479	1.46
409.842	1.44
410.206	1.38
410.569	1.34
410.933	1.38
411.296	1.27
411.66	1.49
412.023	1.31
412.386	1.35
412.749	1.29
413.113	1.38
413.476	1.31
413.839	1.28
414.202	1.43
414.565	1.2
414.928	1.27
415.291	1.3
415.654	1.24
416.017	1.34
416.38	1.2
416.742	1.22
417.105	1.23
417.468	1.28
417.83	1.31
418.193	1.34
418.556	1.28
418.918	1.18
419.281	1.27
419.643	1.23
420.005	1.28
420.368	1.28
420.73	1.22
421.092	1.27
421.455	1.28
421.817	1.16
422.179	1.2
422.541	1.2
422.903	1.33
423.265	1.23
423.627	1.23
423.989	1.2
424.351	1.18
424.713	1.14
425.075	1.2
425.436	1.21
425.798	1.19
426.16	1.21
426.521	1.18
426.883	1.22
427.245	1.25
427.606	1.13
427.967	1.13
428.329	1.21
428.69	1.24
429.052	1.15
429.413	1.2
429.774	1.2
430.135	1.12
430.497	1.19
430.858	1.18
431.219	1.16
431.58	1.12
431.941	1.16
432.302	1.16
432.663	1.2
433.024	1.14
433.384	1.18
433.745	1.1
434.106	1.14
434.467	1.15
434.827	1.15
435.188	1.12
435.548	1.14
435.909	1.1
436.269	1.12
436.63	1.08
436.99	1.09
437.351	1.08
437.711	1.08
438.071	1.06
438.431	1.07
438.792	1.08
439.152	1.02
439.512	1.02
439.872	1.01
440.232	1.06
440.592	1.07
440.952	1.08
441.312	0.99
441.671	1.03
442.031	1.04
442.391	0.99
442.751	1.02
443.11	1.01
443.47	1.03
443.83	0.98
444.189	0.97
444.549	0.97
444.908	0.95
445.267	0.99
445.627	0.98
445.986	0.95
446.345	0.93
446.705	0.97
447.064	0.97
447.423	0.93
447.782	0.93
448.141	0.91
448.5	0.89
448.859	0.91
449.218	0.89
449.577	0.91
449.936	0.91
450.295	0.89
450.653	0.87
451.012	0.88
451.371	0.89
451.729	0.88
452.088	0.89
452.447	0.88
452.805	0.87
453.163	0.83
453.522	0.84
453.88	0.84
454.239	0.82
454.597	0.81
454.955	0.8
455.313	0.81
455.671	0.8
456.029	0.79
456.388	0.77
456.746	0.77
457.104	0.77
457.461	0.75
457.819	0.75
458.177	0.73
458.535	0.72
458.893	0.72
459.25	0.71
459.608	0.71
459.966	0.69
460.323	0.68
460.681	0.67
461.038	0.67
461.396	0.67
461.753	0.66
462.111	0.65
462.468	0.63
462.825	0.63
463.182	0.62
463.54	0.61
463.897	0.63
464.254	0.61
464.611	0.6
464.968	0.6
465.325	0.6
465.682	0.58
466.039	0.57
466.395	0.56
466.752	0.57
467.109	0.55
467.466	0.53
467.822	0.55
468.179	0.53
468.535	0.53
468.892	0.52
469.248	0.51
469.605	0.5
469.961	0.5
470.318	0.51
470.674	0.49
471.03	0.48
471.386	0.47
471.743	0.46
472.099	0.45
472.455	0.46
472.811	0.45
473.167	0.45
473.523	0.43
473.879	0.43
474.235	0.43
474.59	0.42
474.946	0.41
475.302	0.41
475.657	0.4
476.013	0.4
476.369	0.39
476.724	0.4
477.08	0.39
477.435	0.38
477.791	0.38
478.146	0.37
478.501	0.37
478.857	0.37
479.212	0.36
479.567	0.36
479.922	0.34
480.277	0.35
480.632	0.33
480.987	0.34
481.342	0.33
481.697	0.32
482.052	0.32
482.407	0.31
482.762	0.31
483.116	0.3
483.471	0.29
483.826	0.29
484.18	0.3
484.535	0.29
484.89	0.28
485.244	0.28
485.598	0.28
485.953	0.28
486.307	0.28
486.661	0.28
487.016	0.27
487.37	0.27
487.724	0.27
488.078	0.26
488.432	0.26
488.786	0.25
489.14	0.25
489.494	0.24
489.848	0.24
490.202	0.24
490.556	0.24
490.91	0.24
491.263	0.23
491.617	0.24
491.971	0.23
492.324	0.23
492.678	0.22
493.031	0.22
493.385	0.23
493.738	0.22
494.091	0.22
494.445	0.22
494.798	0.22
495.151	0.22
495.504	0.22
495.857	0.22
496.21	0.22
496.564	0.21
496.916	0.21
497.269	0.2
497.622	0.21
497.975	0.2
498.328	0.21
498.681	0.2
499.033	0.2
499.386	0.2
499.739	0.19
500.091	0.19
500.444	0.19
500.796	0.2
501.149	0.19
501.501	0.19
501.854	0.2
502.206	0.19
502.558	0.2
502.91	0.19
503.263	0.19
503.615	0.18
503.967	0.18
504.319	0.18
504.671	0.19
505.023	0.18
505.375	0.18
505.726	0.18
506.078	0.17
506.43	0.17
506.782	0.18
507.133	0.18
507.485	0.18
507.837	0.19
508.188	0.18
508.54	0.17
508.891	0.18
509.243	0.18
509.594	0.17
509.945	0.17
510.296	0.17
510.648	0.17
510.999	0.17
511.35	0.17
511.701	0.17
512.052	0.17
512.403	0.17
512.754	0.17
513.105	0.17
513.456	0.16
513.807	0.16
514.157	0.17
514.508	0.16
514.859	0.16
515.209	0.16
515.56	0.16
515.91	0.16
516.261	0.17
516.611	0.16
516.962	0.16
517.312	0.16
517.662	0.16
518.013	0.16
518.363	0.16
518.713	0.17
519.063	0.16
519.413	0.16
519.763	0.16
520.113	0.16
520.463	0.17
520.813	0.17
521.163	0.17
521.512	0.16
521.862	0.16
522.212	0.17
522.562	0.16
522.911	0.16
523.261	0.16
523.61	0.17
523.96	0.16
524.309	0.17
524.658	0.17
525.008	0.17
525.357	0.16
525.706	0.17
526.056	0.16
526.405	0.17
526.754	0.17
527.103	0.16
527.452	0.16
527.801	0.17
528.15	0.17
528.499	0.17
528.847	0.17
529.196	0.17
529.545	0.17
529.893	0.17
530.242	0.17
530.591	0.17
530.939	0.17
531.288	0.17
531.636	0.17
531.985	0.17
532.333	0.17
532.681	0.17
533.029	0.17
533.378	0.17
533.726	0.17
534.074	0.17
534.422	0.17
534.77	0.17
535.118	0.17
535.466	0.17
535.814	0.17
536.162	0.17
536.509	0.18
536.857	0.17
537.205	0.17
537.552	0.18
537.9	0.17
538.248	0.17
538.595	0.17
538.943	0.17
539.29	0.16
539.637	0.17
539.985	0.16
540.332	0.17
540.679	0.16
541.026	0.16
541.373	0.16
541.721	0.15
542.068	0.17
542.415	0.16
542.762	0.16
543.108	0.16
543.455	0.16
543.802	0.16
544.149	0.16
544.496	0.17
544.842	0.17
545.189	0.16
545.535	0.17
545.882	0.17
546.228	0.16
546.575	0.16
546.921	0.16
547.267	0.16
547.614	0.17
547.96	0.16
548.306	0.16
548.652	0.16
548.998	0.17
549.344	0.17
549.69	0.16
550.036	0.17
550.382	0.16
550.728	0.17
551.074	0.17
551.42	0.16
551.765	0.17
552.111	0.17
552.457	0.17
552.802	0.17
553.148	0.17
553.493	0.17
553.839	0.17
554.184	0.18
554.529	0.17
554.875	0.18
555.22	0.17
555.565	0.18
555.91	0.17
556.255	0.17
556.6	0.18
556.945	0.17
557.29	0.16
557.635	0.17
557.98	0.17
558.325	0.17
558.67	0.18
559.014	0.16
559.359	0.17
559.704	0.16
560.048	0.16
560.393	0.16
560.737	0.16
561.082	0.16
561.426	0.15
561.77	0.16
562.115	0.15
562.459	0.16
562.803	0.16
563.147	0.17
563.491	0.16
563.835	0.17
564.179	0.17
564.523	0.17
564.867	0.16
565.211	0.16
565.555	0.16
565.899	0.18
566.242	0.16
566.586	0.17
566.93	0.16
567.273	0.17
567.617	0.17
567.96	0.18
568.304	0.18
568.647	0.16
568.99	0.17
569.334	0.18
569.677	0.17
570.02	0.17
570.363	0.17
570.706	0.18
571.049	0.18
571.392	0.18
571.735	0.17
572.078	0.18
572.421	0.18
572.764	0.18
573.106	0.17
573.449	0.17
573.792	0.17
574.134	0.18
574.477	0.17
574.819	0.17
575.162	0.17
575.504	0.17
575.847	0.17
576.189	0.16
576.531	0.17
576.873	0.17
577.215	0.16
577.558	0.17
577.9	0.17
578.242	0.17
578.584	0.17
578.926	0.16
579.267	0.16
579.609	0.16
579.951	0.16
580.293	0.16
580.634	0.17
580.976	0.16
581.318	0.17
581.659	0.16
582.001	0.17
582.342	0.17
582.683	0.18
583.025	0.16
583.366	0.16
583.707	0.17
584.049	0.16
584.39	0.16
584.731	0.16
585.072	0.16
585.413	0.17
585.754	0.17
586.095	0.17
586.435	0.17
586.776	0.16
587.117	0.16
587.458	0.16
587.798	0.16
588.139	0.17
588.48	0.16
588.82	0.16
589.161	0.16
589.501	0.15
589.841	0.16
590.182	0.16
590.522	0.15
590.862	0.16
591.202	0.15
591.542	0.15
591.882	0.16
592.222	0.16
592.562	0.16
592.902	0.16
593.242	0.16
593.582	0.17
593.922	0.16
594.261	0.15
594.601	0.16
594.941	0.15
595.28	0.16
595.62	0.16
595.959	0.15
596.299	0.16
596.638	0.16
596.977	0.16
597.317	0.16
597.656	0.15
597.995	0.15
598.334	0.16
598.673	0.16
599.012	0.16
599.351	0.17
599.69	0.16
600.029	0.16
600.368	0.16
600.707	0.16
601.046	0.16
601.384	0.17
601.723	0.16
602.061	0.16
602.4	0.16
602.738	0.17
603.077	0.16
603.415	0.16
603.754	0.16
604.092	0.16
604.43	0.17
604.768	0.16
605.107	0.16
605.445	0.16
605.783	0.16
606.121	0.16
606.459	0.16
606.796	0.16
607.134	0.16
607.472	0.15
607.81	0.16
608.148	0.16
608.485	0.17
608.823	0.16
609.16	0.16
609.498	0.17
609.835	0.16
610.173	0.16
610.51	0.17
610.847	0.17
611.185	0.17
611.522	0.16
611.859	0.17
612.196	0.17
612.533	0.17
612.87	0.18
613.207	0.17
613.544	0.18
613.881	0.18
614.217	0.17
614.554	0.17
614.891	0.17
615.228	0.17
615.564	0.17
615.901	0.17
616.237	0.17
616.574	0.16
616.91	0.17
617.246	0.17
617.583	0.16
617.919	0.17
618.255	0.17
618.591	0.16
618.927	0.16
619.263	0.17
619.599	0.17
619.935	0.17
620.271	0.16
620.607	0.16
620.943	0.16
621.279	0.16
621.614	0.16
621.95	0.16
622.286	0.16
622.621	0.16
622.957	0.15
623.292	0.16
623.627	0.15
623.963	0.15
624.298	0.15
624.633	0.16
624.968	0.15
625.304	0.16
625.639	0.15
625.974	0.15
626.309	0.15
626.644	0.15
626.979	0.16
627.313	0.16
627.648	0.16
627.983	0.16
628.318	0.15
628.652	0.15
628.987	0.16
629.321	0.16
629.656	0.15
629.99	0.15
630.325	0.16
630.659	0.15
630.993	0.15
631.327	0.15
631.662	0.14
631.996	0.15
632.33	0.15
632.664	0.15
632.998	0.14
633.332	0.14
633.666	0.15
633.999	0.14
634.333	0.14
634.667	0.14
635.001	0.14
635.334	0.14
635.668	0.14
636.001	0.13
636.335	0.14
636.668	0.14
637.001	0.13
637.335	0.14
637.668	0.14
638.001	0.13
638.334	0.14
638.668	0.14
639.001	0.14
639.334	0.14
639.667	0.13
639.999	0.14
640.332	0.15
640.665	0.14
640.998	0.15
641.331	0.14
641.663	0.14
641.996	0.14
642.328	0.15
642.661	0.15
642.993	0.14
643.326	0.14
643.658	0.14
643.99	0.13
644.323	0.13
644.655	0.13
644.987	0.14
645.319	0.14
645.651	0.14
645.983	0.14
646.315	0.14
646.647	0.14
646.979	0.15
647.31	0.15
647.642	0.14
647.974	0.14
648.305	0.15
648.637	0.15
648.968	0.15
649.3	0.15
649.631	0.15
649.963	0.14
650.294	0.15
650.625	0.14
650.957	0.14
651.288	0.14
651.619	0.15
651.95	0.14
652.281	0.14
652.612	0.14
652.943	0.14
653.274	0.14
653.604	0.14
653.935	0.14
654.266	0.14
654.596	0.13
654.927	0.14
655.258	0.14
655.588	0.14
655.918	0.14
656.249	0.12
656.579	0.13
656.909	0.14
657.24	0.13
657.57	0.13
657.9	0.13
658.23	0.13
658.56	0.14
658.89	0.14
659.22	0.13
659.55	0.14
659.88	0.13
660.209	0.14
660.539	0.15
660.869	0.13
661.198	0.14
661.528	0.13
661.857	0.13
662.187	0.14
662.516	0.13
662.846	0.13
663.175	0.13
663.504	0.13
663.833	0.13
664.163	0.14
664.492	0.13
664.821	0.13
665.15	0.13
665.479	0.13
665.807	0.13
666.136	0.13
666.465	0.13
666.794	0.13
667.122	0.12
667.451	0.12
667.78	0.13
668.108	0.13
668.437	0.12
668.765	0.13
669.093	0.13
669.422	0.13
669.75	0.12
670.078	0.13
670.406	0.13
670.734	0.13
671.062	0.13
671.39	0.12
671.718	0.12
672.046	0.12
672.374	0.12
672.702	0.12
673.029	0.11
673.357	0.12
673.685	0.12
674.012	0.13
674.34	0.12
674.667	0.13
674.995	0.13
675.322	0.12
675.649	0.12
675.977	0.12
676.304	0.12
676.631	0.11
676.958	0.12
677.285	0.11
677.612	0.11
677.939	0.11
678.266	0.11
678.593	0.12
678.92	0.11
679.246	0.11
679.573	0.11
679.9	0.11
680.226	0.11
680.553	0.11
680.879	0.11
681.206	0.11
681.532	0.1
681.858	0.1
682.184	0.1
682.511	0.11
682.837	0.11
683.163	0.1
683.489	0.11
683.815	0.1
684.141	0.11
684.467	0.1
684.793	0.1
685.118	0.11
685.444	0.11
685.77	0.11
686.095	0.1
686.421	0.1
686.746	0.11
687.072	0.11
687.397	0.1
687.723	0.11
688.048	0.11
688.373	0.1
688.698	0.1
689.023	0.1
689.349	0.1
689.674	0.1
689.999	0.1
690.323	0.09
690.648	0.1
690.973	0.09
691.298	0.09
691.623	0.09
691.947	0.09
692.272	0.09
692.596	0.09
692.921	0.09
693.245	0.09
693.57	0.1
693.894	0.1
694.218	0.1
694.543	0.09
694.867	0.09
695.191	0.09
695.515	0.1
695.839	0.09
696.163	0.1
696.487	0.09
696.811	0.08
697.135	0.1
697.458	0.09
697.782	0.1
698.106	0.1
698.429	0.1
698.753	0.09
699.076	0.1
699.4	0.09
699.723	0.1
700.046	0.09
700.37	0.09
700.693	0.1
701.016	0.1
701.339	0.1
701.662	0.1
701.985	0.1
702.308	0.09
702.631	0.1
702.954	0.1
703.277	0.09
703.599	0.1
703.922	0.09
704.245	0.09
704.567	0.09
704.89	0.08
705.212	0.09
705.535	0.08
705.857	0.08
706.179	0.07
706.502	0.08
706.824	0.07
707.146	0.08
707.468	0.08
707.79	0.08
708.112	0.08
708.434	0.08
708.756	0.08
709.078	0.08
709.399	0.07
709.721	0.07
710.043	0.08
710.364	0.08
710.686	0.08
711.007	0.08
711.329	0.09
711.65	0.07
711.972	0.07
712.293	0.08
712.614	0.08
712.935	0.08
713.256	0.08
713.577	0.09
713.898	0.08
714.219	0.08
714.54	0.08
714.861	0.07
715.182	0.08
715.503	0.08
715.823	0.08
716.144	0.07
716.464	0.07
716.785	0.08
717.105	0.08
717.426	0.07
717.746	0.07
718.066	0.07
718.387	0.07
718.707	0.07
719.027	0.07
719.347	0.06
719.667	0.07
719.987	0.06
720.307	0.06
720.627	0.06
720.947	0.07
721.266	0.07
721.586	0.06
721.906	0.06
722.225	0.06
722.545	0.06
722.864	0.06
723.184	0.07
723.503	0.07
723.823	0.07
724.142	0.06
724.461	0.06
724.78	0.06
725.099	0.07
725.418	0.07
725.737	0.07
726.056	0.07
726.375	0.07
726.694	0.07
727.013	0.06
727.331	0.06
727.65	0.06
727.969	0.07
728.287	0.07
728.606	0.06
728.924	0.06
729.242	0.06
729.561	0.06
729.879	0.06
730.197	0.06
730.515	0.06
730.834	0.06
731.152	0.06
731.47	0.06
731.788	0.06
732.105	0.05
732.423	0.06
732.741	0.06
733.059	0.05
733.376	0.06
733.694	0.05
734.012	0.05
734.329	0.07
734.647	0.05
734.964	0.07
735.281	0.06
735.599	0.06
735.916	0.07
736.233	0.06
736.55	0.06
736.867	0.06
737.184	0.07
737.501	0.06
737.818	0.07
738.135	0.07
738.452	0.06
738.768	0.06
739.085	0.07
739.402	0.06
739.718	0.06
740.035	0.06
740.351	0.07
740.668	0.06
740.984	0.06
741.3	0.06
741.617	0.06
741.933	0.06
742.249	0.07
742.565	0.06
742.881	0.07
743.197	0.06
743.513	0.06
743.829	0.05
744.144	0.06
744.46	0.06
744.776	0.06
745.091	0.06
745.407	0.06
745.722	0.05
746.038	0.05
746.353	0.04
746.669	0.06
746.984	0.04
747.299	0.06
747.614	0.06
747.93	0.06
748.245	0.05
748.56	0.05
748.875	0.05
749.189	0.05
749.504	0.05
749.819	0.06
750.134	0.05
750.448	0.05
750.763	0.05
751.078	0.05
751.392	0.05
751.707	0.07
752.021	0.06
752.335	0.06
752.65	0.06
752.964	0.06
753.278	0.06
753.592	0.06
753.906	0.06
754.22	0.05
754.534	0.06
754.848	0.07
755.162	0.05
755.476	0.06
755.789	0.06
756.103	0.05
756.417	0.05
756.73	0.06
757.044	0.06
757.357	0.05
757.671	0.06
757.984	0.06
758.297	0.06
758.61	0.07
758.924	0.06
759.237	0.05
759.55	0.06
759.863	0.06
760.176	0.06
760.488	0.06
760.801	0.05
761.114	0.05
761.427	0.05
761.739	0.06
762.052	0.06
762.365	0.05
762.677	0.05
762.99	0.04
763.302	0.05
763.614	0.05
763.926	0.06
764.239	0.05
764.551	0.05
764.863	0.05
765.175	0.06
765.487	0.05
765.799	0.05
766.111	0.05
766.423	0.05
766.734	0.05
767.046	0.05
767.358	0.05
767.669	0.05
767.981	0.06
768.292	0.05
768.604	0.05
768.915	0.05
769.226	0.05
769.537	0.04
769.849	0.05
770.16	0.04
770.471	0.04
770.782	0.04
771.093	0.04
771.404	0.03
771.715	0.04
772.025	0.04
772.336	0.04
772.647	0.04
772.957	0.04
773.268	0.04
773.578	0.04
773.889	0.04
774.199	0.04
774.51	0.05
774.82	0.04
775.13	0.04
775.44	0.04
775.75	0.04
776.06	0.04
776.37	0.04
776.68	0.05
776.99	0.04
777.3	0.04
777.61	0.05
777.92	0.04
778.229	0.04
778.539	0.04
778.848	0.04
779.158	0.04
779.467	0.04
779.777	0.05
780.086	0.05
780.395	0.04
780.704	0.04
781.013	0.03
781.323	0.03
781.632	0.04
781.941	0.04
782.249	0.04
782.558	0.03
782.867	0.04
783.176	0.03
783.485	0.04
783.793	0.04
784.102	0.04
784.41	0.04
784.719	0.04
785.027	0.03
785.335	0.04
785.644	0.04
785.952	0.03
786.26	0.03
786.568	0.04
786.876	0.03
787.184	0.04
787.492	0.04
787.8	0.03
788.108	0.04
788.416	0.03
788.723	0.05
789.031	0.04
789.338	0.03
789.646	0.04
789.953	0.05
790.261	0.05
790.568	0.04
790.876	0.05
791.183	0.05
791.49	0.04
791.797	0.05
792.104	0.03
792.411	0.05
792.718	0.04
793.025	0.04
793.332	0.04
793.639	0.05
793.945	0.06
794.252	0.05
794.559	0.04
794.865	0.05
795.172	0.04
795.478	0.05
795.784	0.05
796.091	0.05
796.397	0.05
796.703	0.05
797.009	0.06
797.315	0.05
797.622	0.05
797.927	0.05
798.233	0.04
798.539	0.05
798.845	0.04
799.151	0.04
799.456	0.04
799.762	0.04
800.068	0.04
800.373	0.05
800.679	0.04
800.984	0.04
801.289	0.04
801.595	0.04
801.9	0.03
802.205	0.03
802.51	0.04
802.815	0.03
803.12	0.04
803.425	0.03
803.73	0.04
804.035	0.03
804.339	0.03
804.644	0.03
804.949	0.04
805.253	0.03
805.558	0.03
805.862	0.03
806.167	0.04
806.471	0.03
806.775	0.04
807.08	0.04
807.384	0.04
807.688	0.03
807.992	0.04
808.296	0.04
808.6	0.04
808.904	0.04
809.207	0.04
809.511	0.05
809.815	0.05
810.119	0.04
810.422	0.05
810.726	0.05
811.029	0.05
811.332	0.04
811.636	0.06
811.939	0.04
812.242	0.05
812.546	0.05
812.849	0.04
813.152	0.05
813.455	0.04
813.758	0.05
814.06	0.05
814.363	0.04
814.666	0.05
814.969	0.04
815.271	0.05
815.574	0.04
815.877	0.04
816.179	0.04
816.481	0.04
816.784	0.04
817.086	0.04
817.388	0.03
817.69	0.03
817.993	0.03
818.295	0.03
818.597	0.04
818.899	0.03
819.2	0.03
819.502	0.03
819.804	0.03
820.106	0.02
820.407	0.03
820.709	0.04
821.01	0.03
821.312	0.04
821.613	0.03
821.915	0.03
822.216	0.03
822.517	0.02
822.818	0.02
823.119	0.03
823.42	0.03
823.721	0.02
824.022	0.02
824.323	0.03
824.624	0.03
824.925	0.02
825.226	0.03
825.526	0.02
825.827	0.02
826.127	0.02
826.428	0.03
826.728	0.01
827.028	0.01
827.329	0.02
827.629	0.01
827.929	0.02
828.229	0.02
828.529	0.02
828.829	0.02
829.129	0.03
829.429	0.03
829.729	0.02
830.029	0.01
830.328	0.02
830.628	0.02
830.927	0.01
831.227	0.01
831.526	0.02
831.826	0.02
832.125	0.01
832.424	0.01
832.724	0.02
833.023	0.02
833.322	0.02
833.621	0.01
833.92	0
834.219	0.01
834.518	0.01
834.816	0.01
835.115	0.01
835.414	0
835.712	0.01
836.011	0
836.309	-0
836.608	-0
836.906	-0.01
837.205	-0.01
837.503	-0.01
837.801	-0.01
838.099	-0.01
838.397	-0.03
838.695	-0.02
838.993	-0.01
839.291	-0.02
839.589	-0.02
839.887	-0.02
840.184	-0.03
840.482	-0.04
840.78	-0.03
841.077	-0.04
841.375	-0.03
841.672	-0.04
841.969	-0.04
842.267	-0.04
842.564	-0.04
842.861	-0.03
843.158	-0.05
843.455	-0.05
843.752	-0.05
844.049	-0.04
844.346	-0.04
844.643	-0.06
844.94	-0.04
845.236	-0.04
845.533	-0.05
845.83	-0.05
846.126	-0.04
846.423	-0.04
846.719	-0.06
847.015	-0.04
847.312	-0.06
847.608	-0.05
847.904	-0.06
848.2	-0.05
848.496	-0.06
848.792	-0.06
849.088	-0.05
849.384	-0.06
849.68	-0.07
849.975	-0.06
850.271	-0.07
850.567	-0.08
850.862	-0.08
851.158	-0.08
851.453	-0.08
851.748	-0.09
852.044	-0.08
852.339	-0.08
852.634	-0.09
852.929	-0.09
853.224	-0.1
853.519	-0.09
853.814	-0.09
854.109	-0.11
854.404	-0.1
854.699	-0.11
854.994	-0.1
855.288	-0.1
855.583	-0.11
855.877	-0.11
856.172	-0.11
856.466	-0.1
856.76	-0.1
857.055	-0.11
857.349	-0.13
857.643	-0.12
857.937	-0.13
858.231	-0.12
858.525	-0.12
858.819	-0.12
859.113	-0.14
859.407	-0.14
859.701	-0.13
859.994	-0.14
860.288	-0.12
860.581	-0.13
860.875	-0.13
861.168	-0.14
861.462	-0.13
861.755	-0.13
862.048	-0.13
862.341	-0.13
862.634	-0.13
862.928	-0.12
863.221	-0.13
863.513	-0.14
863.806	-0.13
864.099	-0.13
864.392	-0.14
864.685	-0.12
864.977	-0.12
865.27	-0.13
865.562	-0.13
865.855	-0.13
866.147	-0.13
866.44	-0.13
866.732	-0.14
867.024	-0.15
867.316	-0.14
867.608	-0.14
867.9	-0.13
868.192	-0.14
868.484	-0.14
868.776	-0.15
869.068	-0.14
869.359	-0.13
869.651	-0.15
869.943	-0.16
870.234	-0.15
870.526	-0.15
870.817	-0.14
871.108	-0.14
871.4	-0.14
871.691	-0.14
871.982	-0.15
872.273	-0.15
872.564	-0.15
872.855	-0.15
873.146	-0.17
873.437	-0.16
873.728	-0.17
874.019	-0.16
874.309	-0.17
874.6	-0.16
874.89	-0.16
875.181	-0.16
875.471	-0.16
875.762	-0.16
876.052	-0.16
876.342	-0.15
876.632	-0.17
876.922	-0.18
877.213	-0.15
877.503	-0.19
877.792	-0.17
878.082	-0.17
878.372	-0.15
878.662	-0.18
878.952	-0.17
879.241	-0.17
879.531	-0.16
879.82	-0.17
880.11	-0.17
880.399	-0.17
880.688	-0.16
880.978	-0.16
881.267	-0.16
