Data from 12-12-AQDScycling_Absorbance__193__00193.txt Node

Date: Tue Dec 12 11:44:59 EST 2023
User: kyuminlee
Spectrometer: FLMS00943
Trigger mode: 0
Integration Time (sec): 1.000000E-1
Scans to average: 1
Electric dark correction enabled: true
Nonlinearity correction enabled: false
Boxcar width: 0
XAxis mode: Wavelengths
Number of Pixels in Spectrum: 2048
>>>>>Begin Spectral Data<<<<<
179.651	-0
180.037	-0
180.424	-0
180.81	0.06
181.197	0.19
181.583	-0.41
181.97	-0.37
182.356	-0
182.743	-0
183.129	0.33
183.515	-0.1
183.901	-2.42
184.288	-0
184.674	-0
185.06	-0
185.446	-0
185.832	-1.09
186.218	0.42
186.604	-0.09
186.99	-0
187.376	0.3
187.762	0.01
188.148	0.16
188.534	-0.29
188.92	-0.04
189.305	0.09
189.691	-0.01
190.077	0.11
190.463	0.16
190.848	0.31
191.234	0.11
191.619	0.16
192.005	0.07
192.391	0.18
192.776	0.1
193.161	0.07
193.547	0.23
193.932	0.14
194.318	0.07
194.703	0.16
195.088	0.04
195.473	0.17
195.859	0.16
196.244	0.09
196.629	0.04
197.014	0.08
197.399	0.13
197.784	0.18
198.169	0.13
198.554	0.28
198.939	0.17
199.324	0.14
199.709	0.04
200.094	0.06
200.478	0.1
200.863	0.19
201.248	0.16
201.633	0.27
202.017	0.09
202.402	0.29
202.787	0.11
203.171	0.13
203.556	0.11
203.94	0.15
204.325	0.22
204.709	0.16
205.093	0.07
205.478	0.22
205.862	0.14
206.246	0.33
206.631	0.25
207.015	0.1
207.399	0.2
207.783	0.11
208.167	0.17
208.551	0.19
208.935	0.18
209.319	0.12
209.703	0.05
210.087	0.31
210.471	0.06
210.855	0.2
211.239	0.15
211.623	0.23
212.007	0.16
212.39	0.27
212.774	0.09
213.158	0.13
213.541	0.29
213.925	0.23
214.309	0.26
214.692	0.3
215.076	0.3
215.459	0.23
215.842	0.11
216.226	0.18
216.609	0.24
216.993	0.19
217.376	0.34
217.759	0.19
218.142	0.35
218.525	0.5
218.909	0.32
219.292	0.21
219.675	0.44
220.058	0.3
220.441	0.51
220.824	0.5
221.207	0.71
221.59	0.49
221.973	0.52
222.355	0.69
222.738	0.62
223.121	0.57
223.504	0.58
223.886	0.62
224.269	0.66
224.652	0.62
225.034	0.81
225.417	0.68
225.799	0.63
226.182	0.88
226.564	0.92
226.947	0.89
227.329	0.88
227.711	0.98
228.094	0.83
228.476	0.91
228.858	0.88
229.24	0.84
229.623	1.01
230.005	0.79
230.387	0.87
230.769	0.85
231.151	1
231.533	0.98
231.915	0.9
232.297	0.99
232.679	1.08
233.061	1.06
233.442	0.99
233.824	1.02
234.206	1.16
234.588	1.14
234.969	1.09
235.351	0.92
235.733	1.02
236.114	1.05
236.496	1
236.877	1.07
237.259	1.09
237.64	1.12
238.022	0.96
238.403	0.93
238.784	0.97
239.165	0.89
239.547	1.22
239.928	1.02
240.309	1.07
240.69	0.95
241.071	1.16
241.452	1.14
241.834	1.07
242.215	0.97
242.595	1.03
242.976	1.16
243.357	1.04
243.738	1.02
244.119	1.35
244.5	1.13
244.881	1.26
245.261	1.25
245.642	1.12
246.023	1.25
246.403	1.28
246.784	1.3
247.164	1.5
247.545	1.3
247.925	1.35
248.306	1.2
248.686	1.41
249.067	1.21
249.447	1.4
249.827	1.54
250.207	1.35
250.588	1.37
250.968	1.41
251.348	1.37
251.728	1.36
252.108	1.38
252.488	1.43
252.868	1.28
253.248	1.27
253.628	1.4
254.008	1.45
254.388	1.36
254.768	1.4
255.147	1.41
255.527	1.43
255.907	1.33
256.287	1.39
256.666	1.37
257.046	1.62
257.425	1.77
257.805	1.44
258.184	1.48
258.564	1.41
258.943	1.4
259.323	1.43
259.702	1.43
260.081	1.5
260.461	1.6
260.84	1.43
261.219	1.98
261.598	1.54
261.977	1.42
262.356	1.52
262.736	1.45
263.115	1.46
263.494	1.51
263.873	1.47
264.251	1.55
264.63	1.55
265.009	1.64
265.388	1.57
265.767	1.3
266.145	1.46
266.524	1.32
266.903	1.59
267.281	1.46
267.66	1.54
268.039	1.46
268.417	1.5
268.796	1.43
269.174	1.6
269.552	1.31
269.931	1.49
270.309	1.45
270.687	1.63
271.066	1.58
271.444	1.4
271.822	1.57
272.2	1.58
272.578	1.38
272.956	1.42
273.334	1.43
273.712	1.44
274.09	1.46
274.468	1.27
274.846	1.41
275.224	1.33
275.602	1.45
275.98	1.46
276.357	1.4
276.735	1.48
277.113	1.47
277.49	1.29
277.868	1.21
278.246	1.47
278.623	1.3
279.001	1.35
279.378	1.4
279.756	1.4
280.133	1.71
280.51	1.35
280.888	1.54
281.265	1.37
281.642	1.5
282.019	1.53
282.396	1.62
282.773	1.48
283.151	1.48
283.528	1.52
283.905	1.41
284.282	1.72
284.659	1.76
285.035	1.38
285.412	1.36
285.789	1.52
286.166	1.41
286.543	1.39
286.919	1.58
287.296	1.42
287.673	1.72
288.049	1.44
288.426	1.46
288.802	1.44
289.179	1.45
289.555	1.75
289.932	1.39
290.308	1.37
290.684	1.43
291.061	1.39
291.437	1.63
291.813	1.47
292.189	1.33
292.565	1.3
292.942	1.4
293.318	1.32
293.694	1.47
294.07	1.4
294.446	1.4
294.822	1.58
295.197	1.42
295.573	1.48
295.949	1.4
296.325	1.52
296.701	1.46
297.076	1.56
297.452	1.52
297.828	1.4
298.203	1.75
298.579	1.45
298.954	1.48
299.33	1.44
299.705	1.48
300.081	1.5
300.456	1.53
300.831	1.35
301.206	1.49
301.582	1.65
301.957	1.47
302.332	1.59
302.707	1.45
303.082	1.45
303.457	1.42
303.832	1.57
304.207	1.45
304.582	1.4
304.957	1.36
305.332	1.48
305.707	1.39
306.082	1.59
306.456	1.58
306.831	1.45
307.206	1.52
307.58	1.46
307.955	1.37
308.33	1.47
308.704	1.46
309.079	1.41
309.453	1.48
309.828	1.39
310.202	1.34
310.576	1.5
310.951	1.44
311.325	1.5
311.699	1.46
312.073	1.43
312.447	1.52
312.821	1.35
313.196	1.46
313.57	1.43
313.944	1.35
314.317	1.38
314.691	1.47
315.065	1.48
315.439	1.45
315.813	1.5
316.187	1.36
316.56	1.57
316.934	1.36
317.308	1.51
317.681	1.45
318.055	1.46
318.428	1.38
318.802	1.47
319.175	1.73
319.549	1.45
319.922	1.36
320.295	1.46
320.669	1.46
321.042	1.41
321.415	1.64
321.788	1.45
322.162	1.49
322.535	1.6
322.908	1.56
323.281	1.51
323.654	1.69
324.027	1.34
324.4	1.55
324.773	1.49
325.145	1.59
325.518	1.38
325.891	1.42
326.264	1.56
326.636	1.37
327.009	1.42
327.382	1.49
327.754	1.69
328.127	1.51
328.499	1.48
328.872	1.35
329.244	1.53
329.616	1.45
329.989	1.39
330.361	1.5
330.733	1.53
331.106	1.47
331.478	1.54
331.85	1.46
332.222	1.49
332.594	1.5
332.966	1.57
333.338	1.59
333.71	1.68
334.082	1.56
334.454	1.56
334.826	1.53
335.197	1.58
335.569	1.63
335.941	1.46
336.312	1.4
336.684	1.45
337.056	1.57
337.427	1.64
337.799	1.64
338.17	1.48
338.542	1.45
338.913	1.56
339.284	1.6
339.656	1.46
340.027	1.54
340.398	1.58
340.769	1.55
341.141	1.72
341.512	1.64
341.883	1.46
342.254	1.55
342.625	1.69
342.996	1.44
343.367	1.51
343.738	1.45
344.108	1.39
344.479	1.51
344.85	1.38
345.221	1.57
345.591	1.36
345.962	1.53
346.333	1.49
346.703	1.3
347.074	1.26
347.444	1.3
347.815	1.34
348.185	1.31
348.556	1.44
348.926	1.28
349.296	1.44
349.666	1.34
350.037	1.24
350.407	1.37
350.777	1.32
351.147	1.33
351.517	1.37
351.887	1.36
352.257	1.39
352.627	1.3
352.997	1.28
353.367	1.29
353.737	1.38
354.106	1.42
354.476	1.27
354.846	1.33
355.216	1.45
355.585	1.4
355.955	1.32
356.324	1.36
356.694	1.32
357.063	1.32
357.433	1.3
357.802	1.33
358.171	1.37
358.541	1.33
358.91	1.31
359.279	1.33
359.648	1.29
360.017	1.4
360.387	1.29
360.756	1.2
361.125	1.36
361.494	1.26
361.863	1.27
362.231	1.25
362.6	1.24
362.969	1.3
363.338	1.27
363.707	1.35
364.075	1.31
364.444	1.19
364.813	1.22
365.181	1.2
365.55	1.21
365.918	1.29
366.287	1.26
366.655	1.24
367.024	1.22
367.392	1.32
367.76	1.28
368.128	1.25
368.497	1.25
368.865	1.24
369.233	1.26
369.601	1.26
369.969	1.24
370.337	1.22
370.705	1.18
371.073	1.23
371.441	1.23
371.809	1.21
372.177	1.25
372.544	1.23
372.912	1.26
373.28	1.24
373.647	1.25
374.015	1.37
374.383	1.32
374.75	1.32
375.118	1.35
375.485	1.2
375.853	1.31
376.22	1.23
376.587	1.28
376.955	1.32
377.322	1.26
377.689	1.23
378.056	1.2
378.423	1.26
378.79	1.27
379.157	1.34
379.524	1.24
379.891	1.3
380.258	1.29
380.625	1.33
380.992	1.25
381.359	1.32
381.726	1.47
382.092	1.28
382.459	1.4
382.826	1.31
383.192	1.38
383.559	1.34
383.925	1.43
384.292	1.34
384.658	1.43
385.025	1.38
385.391	1.41
385.757	1.5
386.123	1.45
386.49	1.4
386.856	1.37
387.222	1.4
387.588	1.4
387.954	1.58
388.32	1.53
388.686	1.43
389.052	1.35
389.418	1.41
389.784	1.39
390.15	1.53
390.515	1.29
390.881	1.4
391.247	1.35
391.613	1.48
391.978	1.32
392.344	1.46
392.709	1.43
393.075	1.45
393.44	1.42
393.806	1.46
394.171	1.35
394.536	1.38
394.902	1.37
395.267	1.43
395.632	1.36
395.997	1.3
396.362	1.32
396.727	1.47
397.092	1.45
397.457	1.32
397.822	1.28
398.187	1.38
398.552	1.35
398.917	1.41
399.282	1.28
399.646	1.35
400.011	1.5
400.376	1.28
400.74	1.29
401.105	1.35
401.47	1.37
401.834	1.31
402.199	1.38
402.563	1.2
402.927	1.25
403.292	1.38
403.656	1.33
404.02	1.32
404.384	1.34
404.749	1.26
405.113	1.28
405.477	1.23
405.841	1.34
406.205	1.25
406.569	1.23
406.933	1.18
407.296	1.27
407.66	1.19
408.024	1.24
408.388	1.25
408.752	1.14
409.115	1.24
409.479	1.28
409.842	1.12
410.206	1.12
410.569	1.11
410.933	1.17
411.296	1.19
411.66	1.14
412.023	1.15
412.386	1.12
412.749	1.09
413.113	1.17
413.476	1.1
413.839	1.12
414.202	1.11
414.565	1.06
414.928	1.06
415.291	1.07
415.654	1.04
416.017	1.1
416.38	1.05
416.742	1.05
417.105	1.05
417.468	1.04
417.83	1.08
418.193	1.07
418.556	1.03
418.918	1.03
419.281	1.02
419.643	1.03
420.005	1.07
420.368	1.04
420.73	1.03
421.092	1.08
421.455	1.04
421.817	1
422.179	1.02
422.541	1.03
422.903	1.02
423.265	1.07
423.627	1.03
423.989	1.03
424.351	1.01
424.713	1.02
425.075	0.97
425.436	1.02
425.798	0.97
426.16	1.01
426.521	0.99
426.883	0.98
427.245	1.01
427.606	0.98
427.967	0.93
428.329	0.98
428.69	0.99
429.052	0.96
429.413	0.95
429.774	0.97
430.135	0.98
430.497	1.01
430.858	0.94
431.219	0.97
431.58	0.92
431.941	0.93
432.302	0.94
432.663	0.93
433.024	0.95
433.384	0.95
433.745	0.9
434.106	0.93
434.467	0.92
434.827	0.93
435.188	0.92
435.548	0.96
435.909	0.9
436.269	0.94
436.63	0.9
436.99	0.89
437.351	0.9
437.711	0.91
438.071	0.87
438.431	0.87
438.792	0.87
439.152	0.87
439.512	0.86
439.872	0.87
440.232	0.91
440.592	0.87
440.952	0.86
441.312	0.84
441.671	0.85
442.031	0.83
442.391	0.84
442.751	0.86
443.11	0.82
443.47	0.81
443.83	0.83
444.189	0.8
444.549	0.8
444.908	0.8
445.267	0.82
445.627	0.8
445.986	0.8
446.345	0.79
446.705	0.79
447.064	0.79
447.423	0.77
447.782	0.77
448.141	0.75
448.5	0.74
448.859	0.75
449.218	0.74
449.577	0.75
449.936	0.76
450.295	0.76
450.653	0.73
451.012	0.74
451.371	0.73
451.729	0.72
452.088	0.72
452.447	0.72
452.805	0.71
453.163	0.71
453.522	0.7
453.88	0.7
454.239	0.68
454.597	0.69
454.955	0.69
455.313	0.67
455.671	0.67
456.029	0.66
456.388	0.66
456.746	0.64
457.104	0.63
457.461	0.63
457.819	0.62
458.177	0.61
458.535	0.6
458.893	0.6
459.25	0.61
459.608	0.59
459.966	0.57
460.323	0.58
460.681	0.56
461.038	0.56
461.396	0.57
461.753	0.56
462.111	0.55
462.468	0.54
462.825	0.54
463.182	0.53
463.54	0.53
463.897	0.52
464.254	0.52
464.611	0.51
464.968	0.51
465.325	0.51
465.682	0.5
466.039	0.48
466.395	0.48
466.752	0.48
467.109	0.47
467.466	0.47
467.822	0.47
468.179	0.45
468.535	0.45
468.892	0.44
469.248	0.44
469.605	0.43
469.961	0.43
470.318	0.44
470.674	0.43
471.03	0.42
471.386	0.42
471.743	0.41
472.099	0.41
472.455	0.39
472.811	0.39
473.167	0.39
473.523	0.37
473.879	0.37
474.235	0.37
474.59	0.36
474.946	0.35
475.302	0.36
475.657	0.34
476.013	0.35
476.369	0.34
476.724	0.34
477.08	0.34
477.435	0.34
477.791	0.33
478.146	0.33
478.501	0.32
478.857	0.32
479.212	0.31
479.567	0.31
479.922	0.3
480.277	0.3
480.632	0.29
480.987	0.29
481.342	0.29
481.697	0.28
482.052	0.27
482.407	0.28
482.762	0.27
483.116	0.26
483.471	0.26
483.826	0.26
484.18	0.25
484.535	0.25
484.89	0.25
485.244	0.25
485.598	0.25
485.953	0.24
486.307	0.24
486.661	0.25
487.016	0.24
487.37	0.24
487.724	0.24
488.078	0.23
488.432	0.23
488.786	0.23
489.14	0.23
489.494	0.22
489.848	0.22
490.202	0.22
490.556	0.21
490.91	0.21
491.263	0.22
491.617	0.21
491.971	0.21
492.324	0.21
492.678	0.2
493.031	0.21
493.385	0.2
493.738	0.2
494.091	0.2
494.445	0.2
494.798	0.2
495.151	0.19
495.504	0.2
495.857	0.19
496.21	0.19
496.564	0.19
496.916	0.19
497.269	0.19
497.622	0.19
497.975	0.19
498.328	0.19
498.681	0.19
499.033	0.18
499.386	0.19
499.739	0.18
500.091	0.18
500.444	0.18
500.796	0.18
501.149	0.17
501.501	0.17
501.854	0.18
502.206	0.17
502.558	0.18
502.91	0.18
503.263	0.17
503.615	0.18
503.967	0.17
504.319	0.17
504.671	0.17
505.023	0.17
505.375	0.17
505.726	0.17
506.078	0.17
506.43	0.16
506.782	0.16
507.133	0.16
507.485	0.16
507.837	0.17
508.188	0.17
508.54	0.17
508.891	0.17
509.243	0.16
509.594	0.16
509.945	0.17
510.296	0.16
510.648	0.17
510.999	0.16
511.35	0.16
511.701	0.16
512.052	0.17
512.403	0.16
512.754	0.16
513.105	0.16
513.456	0.15
513.807	0.15
514.157	0.16
514.508	0.15
514.859	0.15
515.209	0.15
515.56	0.15
515.91	0.15
516.261	0.15
516.611	0.15
516.962	0.15
517.312	0.15
517.662	0.15
518.013	0.15
518.363	0.15
518.713	0.15
519.063	0.15
519.413	0.15
519.763	0.15
520.113	0.15
520.463	0.16
520.813	0.16
521.163	0.16
521.512	0.16
521.862	0.16
522.212	0.16
522.562	0.16
522.911	0.15
523.261	0.15
523.61	0.15
523.96	0.15
524.309	0.16
524.658	0.15
525.008	0.16
525.357	0.16
525.706	0.16
526.056	0.15
526.405	0.15
526.754	0.15
527.103	0.16
527.452	0.15
527.801	0.16
528.15	0.16
528.499	0.16
528.847	0.15
529.196	0.17
529.545	0.16
529.893	0.16
530.242	0.17
530.591	0.17
530.939	0.17
531.288	0.16
531.636	0.16
531.985	0.17
532.333	0.16
532.681	0.16
533.029	0.16
533.378	0.16
533.726	0.17
534.074	0.17
534.422	0.16
534.77	0.17
535.118	0.16
535.466	0.16
535.814	0.17
536.162	0.17
536.509	0.16
536.857	0.16
537.205	0.17
537.552	0.16
537.9	0.17
538.248	0.16
538.595	0.17
538.943	0.17
539.29	0.17
539.637	0.16
539.985	0.16
540.332	0.16
540.679	0.16
541.026	0.16
541.373	0.16
541.721	0.15
542.068	0.16
542.415	0.16
542.762	0.16
543.108	0.15
543.455	0.15
543.802	0.15
544.149	0.15
544.496	0.16
544.842	0.15
545.189	0.15
545.535	0.16
545.882	0.16
546.228	0.15
546.575	0.15
546.921	0.16
547.267	0.15
547.614	0.16
547.96	0.15
548.306	0.15
548.652	0.15
548.998	0.16
549.344	0.16
549.69	0.16
550.036	0.16
550.382	0.16
550.728	0.15
551.074	0.16
551.42	0.16
551.765	0.16
552.111	0.16
552.457	0.17
552.802	0.16
553.148	0.17
553.493	0.16
553.839	0.17
554.184	0.17
554.529	0.16
554.875	0.17
555.22	0.16
555.565	0.16
555.91	0.16
556.255	0.18
556.6	0.17
556.945	0.15
557.29	0.16
557.635	0.17
557.98	0.17
558.325	0.17
558.67	0.17
559.014	0.16
559.359	0.16
559.704	0.17
560.048	0.16
560.393	0.17
560.737	0.16
561.082	0.16
561.426	0.16
561.77	0.16
562.115	0.15
562.459	0.16
562.803	0.16
563.147	0.16
563.491	0.16
563.835	0.17
564.179	0.16
564.523	0.16
564.867	0.16
565.211	0.16
565.555	0.16
565.899	0.16
566.242	0.17
566.586	0.15
566.93	0.17
567.273	0.18
567.617	0.16
567.96	0.16
568.304	0.16
568.647	0.17
568.99	0.16
569.334	0.17
569.677	0.17
570.02	0.18
570.363	0.17
570.706	0.17
571.049	0.17
571.392	0.16
571.735	0.16
572.078	0.17
572.421	0.17
572.764	0.17
573.106	0.17
573.449	0.16
573.792	0.17
574.134	0.16
574.477	0.17
574.819	0.16
575.162	0.16
575.504	0.16
575.847	0.16
576.189	0.17
576.531	0.17
576.873	0.17
577.215	0.16
577.558	0.17
577.9	0.16
578.242	0.17
578.584	0.16
578.926	0.16
579.267	0.16
579.609	0.16
579.951	0.17
580.293	0.16
580.634	0.16
580.976	0.16
581.318	0.16
581.659	0.16
582.001	0.17
582.342	0.17
582.683	0.16
583.025	0.15
583.366	0.16
583.707	0.16
584.049	0.16
584.39	0.16
584.731	0.16
585.072	0.16
585.413	0.16
585.754	0.16
586.095	0.16
586.435	0.17
586.776	0.16
587.117	0.16
587.458	0.17
587.798	0.16
588.139	0.16
588.48	0.16
588.82	0.16
589.161	0.16
589.501	0.15
589.841	0.16
590.182	0.16
590.522	0.16
590.862	0.16
591.202	0.16
591.542	0.16
591.882	0.16
592.222	0.16
592.562	0.16
592.902	0.16
593.242	0.16
593.582	0.16
593.922	0.16
594.261	0.15
594.601	0.16
594.941	0.16
595.28	0.16
595.62	0.17
595.959	0.16
596.299	0.16
596.638	0.16
596.977	0.16
597.317	0.17
597.656	0.16
597.995	0.16
598.334	0.16
598.673	0.16
599.012	0.15
599.351	0.16
599.69	0.15
600.029	0.16
600.368	0.16
600.707	0.16
601.046	0.15
601.384	0.16
601.723	0.16
602.061	0.15
602.4	0.16
602.738	0.16
603.077	0.15
603.415	0.16
603.754	0.16
604.092	0.16
604.43	0.15
604.768	0.15
605.107	0.16
605.445	0.16
605.783	0.15
606.121	0.15
606.459	0.16
606.796	0.16
607.134	0.15
607.472	0.15
607.81	0.15
608.148	0.16
608.485	0.16
608.823	0.15
609.16	0.15
609.498	0.15
609.835	0.16
610.173	0.16
610.51	0.16
610.847	0.16
611.185	0.16
611.522	0.16
611.859	0.16
612.196	0.16
612.533	0.15
612.87	0.17
613.207	0.17
613.544	0.16
613.881	0.17
614.217	0.16
614.554	0.16
614.891	0.16
615.228	0.16
615.564	0.16
615.901	0.16
616.237	0.17
616.574	0.16
616.91	0.18
617.246	0.16
617.583	0.16
617.919	0.17
618.255	0.18
618.591	0.16
618.927	0.16
619.263	0.17
619.599	0.17
619.935	0.17
620.271	0.17
620.607	0.17
620.943	0.16
621.279	0.16
621.614	0.16
621.95	0.17
622.286	0.16
622.621	0.16
622.957	0.16
623.292	0.15
623.627	0.15
623.963	0.15
624.298	0.15
624.633	0.15
624.968	0.15
625.304	0.16
625.639	0.15
625.974	0.15
626.309	0.16
626.644	0.15
626.979	0.16
627.313	0.15
627.648	0.15
627.983	0.16
628.318	0.14
628.652	0.14
628.987	0.15
629.321	0.15
629.656	0.14
629.99	0.15
630.325	0.15
630.659	0.15
630.993	0.14
631.327	0.15
631.662	0.14
631.996	0.15
632.33	0.15
632.664	0.14
632.998	0.14
633.332	0.14
633.666	0.14
633.999	0.14
634.333	0.14
634.667	0.15
635.001	0.14
635.334	0.14
635.668	0.13
636.001	0.13
636.335	0.14
636.668	0.15
637.001	0.13
637.335	0.14
637.668	0.14
638.001	0.14
638.334	0.13
638.668	0.13
639.001	0.14
639.334	0.13
639.667	0.13
639.999	0.13
640.332	0.13
640.665	0.13
640.998	0.14
641.331	0.14
641.663	0.13
641.996	0.13
642.328	0.14
642.661	0.13
642.993	0.13
643.326	0.14
643.658	0.13
643.99	0.13
644.323	0.13
644.655	0.13
644.987	0.13
645.319	0.14
645.651	0.14
645.983	0.14
646.315	0.13
646.647	0.14
646.979	0.14
647.31	0.14
647.642	0.14
647.974	0.14
648.305	0.14
648.637	0.14
648.968	0.14
649.3	0.14
649.631	0.15
649.963	0.14
650.294	0.15
650.625	0.14
650.957	0.14
651.288	0.14
651.619	0.15
651.95	0.14
652.281	0.15
652.612	0.14
652.943	0.14
653.274	0.15
653.604	0.14
653.935	0.14
654.266	0.14
654.596	0.13
654.927	0.13
655.258	0.14
655.588	0.14
655.918	0.14
656.249	0.12
656.579	0.13
656.909	0.13
657.24	0.13
657.57	0.15
657.9	0.14
658.23	0.13
658.56	0.14
658.89	0.14
659.22	0.14
659.55	0.14
659.88	0.14
660.209	0.14
660.539	0.15
660.869	0.14
661.198	0.14
661.528	0.14
661.857	0.13
662.187	0.14
662.516	0.14
662.846	0.13
663.175	0.13
663.504	0.13
663.833	0.13
664.163	0.13
664.492	0.13
664.821	0.13
665.15	0.13
665.479	0.13
665.807	0.13
666.136	0.13
666.465	0.12
666.794	0.13
667.122	0.12
667.451	0.12
667.78	0.12
668.108	0.12
668.437	0.13
668.765	0.13
669.093	0.13
669.422	0.13
669.75	0.13
670.078	0.13
670.406	0.13
670.734	0.14
671.062	0.13
671.39	0.12
671.718	0.13
672.046	0.13
672.374	0.12
672.702	0.13
673.029	0.12
673.357	0.13
673.685	0.13
674.012	0.13
674.34	0.12
674.667	0.13
674.995	0.12
675.322	0.12
675.649	0.12
675.977	0.13
676.304	0.12
676.631	0.11
676.958	0.11
677.285	0.12
677.612	0.11
677.939	0.12
678.266	0.12
678.593	0.12
678.92	0.12
679.246	0.11
679.573	0.11
679.9	0.11
680.226	0.11
680.553	0.11
680.879	0.11
681.206	0.11
681.532	0.11
681.858	0.11
682.184	0.11
682.511	0.12
682.837	0.1
683.163	0.11
683.489	0.12
683.815	0.11
684.141	0.11
684.467	0.11
684.793	0.11
685.118	0.11
685.444	0.11
685.77	0.11
686.095	0.11
686.421	0.11
686.746	0.12
687.072	0.12
687.397	0.11
687.723	0.12
688.048	0.12
688.373	0.1
688.698	0.11
689.023	0.11
689.349	0.11
689.674	0.12
689.999	0.11
690.323	0.1
690.648	0.1
690.973	0.1
691.298	0.1
691.623	0.1
691.947	0.1
692.272	0.09
692.596	0.1
692.921	0.1
693.245	0.1
693.57	0.11
693.894	0.1
694.218	0.1
694.543	0.1
694.867	0.09
695.191	0.09
695.515	0.1
695.839	0.08
696.163	0.1
696.487	0.1
696.811	0.09
697.135	0.1
697.458	0.1
697.782	0.09
698.106	0.09
698.429	0.1
698.753	0.1
699.076	0.09
699.4	0.09
699.723	0.1
700.046	0.09
700.37	0.1
700.693	0.1
701.016	0.09
701.339	0.1
701.662	0.1
701.985	0.1
702.308	0.09
702.631	0.1
702.954	0.1
703.277	0.1
703.599	0.1
703.922	0.09
704.245	0.1
704.567	0.09
704.89	0.09
705.212	0.1
705.535	0.09
705.857	0.1
706.179	0.09
706.502	0.09
706.824	0.09
707.146	0.09
707.468	0.09
707.79	0.09
708.112	0.09
708.434	0.09
708.756	0.1
709.078	0.09
709.399	0.09
709.721	0.1
710.043	0.09
710.364	0.1
710.686	0.09
711.007	0.09
711.329	0.1
711.65	0.09
711.972	0.09
712.293	0.09
712.614	0.1
712.935	0.09
713.256	0.09
713.577	0.1
713.898	0.09
714.219	0.08
714.54	0.08
714.861	0.08
715.182	0.08
715.503	0.08
715.823	0.08
716.144	0.08
716.464	0.08
716.785	0.07
717.105	0.08
717.426	0.08
717.746	0.07
718.066	0.07
718.387	0.08
718.707	0.07
719.027	0.08
719.347	0.07
719.667	0.08
719.987	0.07
720.307	0.07
720.627	0.07
720.947	0.07
721.266	0.07
721.586	0.06
721.906	0.07
722.225	0.06
722.545	0.06
722.864	0.07
723.184	0.07
723.503	0.06
723.823	0.07
724.142	0.06
724.461	0.06
724.78	0.06
725.099	0.07
725.418	0.06
725.737	0.06
726.056	0.07
726.375	0.07
726.694	0.07
727.013	0.07
727.331	0.06
727.65	0.07
727.969	0.07
728.287	0.07
728.606	0.07
728.924	0.06
729.242	0.06
729.561	0.07
729.879	0.06
730.197	0.06
730.515	0.06
730.834	0.06
731.152	0.06
731.47	0.06
731.788	0.06
732.105	0.05
732.423	0.06
732.741	0.06
733.059	0.06
733.376	0.06
733.694	0.05
734.012	0.06
734.329	0.06
734.647	0.05
734.964	0.07
735.281	0.07
735.599	0.08
735.916	0.07
736.233	0.06
736.55	0.06
736.867	0.07
737.184	0.07
737.501	0.07
737.818	0.06
738.135	0.07
738.452	0.07
738.768	0.07
739.085	0.07
739.402	0.06
739.718	0.07
740.035	0.07
740.351	0.07
740.668	0.07
740.984	0.06
741.3	0.06
741.617	0.07
741.933	0.07
742.249	0.07
742.565	0.06
742.881	0.07
743.197	0.07
743.513	0.07
743.829	0.06
744.144	0.07
744.46	0.06
744.776	0.07
745.091	0.06
745.407	0.06
745.722	0.06
746.038	0.06
746.353	0.06
746.669	0.07
746.984	0.06
747.299	0.07
747.614	0.07
747.93	0.07
748.245	0.07
748.56	0.06
748.875	0.07
749.189	0.06
749.504	0.06
749.819	0.07
750.134	0.07
750.448	0.07
750.763	0.07
751.078	0.06
751.392	0.06
751.707	0.08
752.021	0.07
752.335	0.07
752.65	0.07
752.964	0.06
753.278	0.07
753.592	0.06
753.906	0.06
754.22	0.07
754.534	0.07
754.848	0.07
755.162	0.06
755.476	0.07
755.789	0.07
756.103	0.06
756.417	0.07
756.73	0.06
757.044	0.07
757.357	0.06
757.671	0.07
757.984	0.07
758.297	0.07
758.61	0.07
758.924	0.07
759.237	0.07
759.55	0.06
759.863	0.06
760.176	0.06
760.488	0.06
760.801	0.06
761.114	0.06
761.427	0.06
761.739	0.07
762.052	0.06
762.365	0.06
762.677	0.06
762.99	0.05
763.302	0.05
763.614	0.06
763.926	0.07
764.239	0.05
764.551	0.06
764.863	0.06
765.175	0.06
765.487	0.06
765.799	0.05
766.111	0.05
766.423	0.06
766.734	0.05
767.046	0.05
767.358	0.05
767.669	0.06
767.981	0.06
768.292	0.05
768.604	0.05
768.915	0.05
769.226	0.05
769.537	0.03
769.849	0.05
770.16	0.05
770.471	0.05
770.782	0.05
771.093	0.05
771.404	0.03
771.715	0.05
772.025	0.04
772.336	0.04
772.647	0.04
772.957	0.05
773.268	0.04
773.578	0.05
773.889	0.04
774.199	0.05
774.51	0.05
774.82	0.04
775.13	0.05
775.44	0.05
775.75	0.05
776.06	0.05
776.37	0.04
776.68	0.05
776.99	0.05
777.3	0.05
777.61	0.05
777.92	0.05
778.229	0.05
778.539	0.04
778.848	0.05
779.158	0.05
779.467	0.06
779.777	0.05
780.086	0.05
780.395	0.04
780.704	0.05
781.013	0.04
781.323	0.04
781.632	0.05
781.941	0.05
782.249	0.05
782.558	0.05
782.867	0.05
783.176	0.04
783.485	0.04
783.793	0.04
784.102	0.04
784.41	0.04
784.719	0.04
785.027	0.04
785.335	0.04
785.644	0.05
785.952	0.04
786.26	0.05
786.568	0.03
786.876	0.03
787.184	0.04
787.492	0.04
787.8	0.04
788.108	0.04
788.416	0.04
788.723	0.05
789.031	0.04
789.338	0.04
789.646	0.03
789.953	0.04
790.261	0.04
790.568	0.04
790.876	0.04
791.183	0.04
791.49	0.03
791.797	0.04
792.104	0.04
792.411	0.04
792.718	0.04
793.025	0.05
793.332	0.04
793.639	0.05
793.945	0.05
794.252	0.05
794.559	0.05
794.865	0.06
795.172	0.05
795.478	0.05
795.784	0.05
796.091	0.05
796.397	0.05
796.703	0.05
797.009	0.05
797.315	0.05
797.622	0.05
797.927	0.05
798.233	0.05
798.539	0.06
798.845	0.05
799.151	0.04
799.456	0.06
799.762	0.05
800.068	0.05
800.373	0.05
800.679	0.04
800.984	0.04
801.289	0.05
801.595	0.04
801.9	0.04
802.205	0.04
802.51	0.04
802.815	0.04
803.12	0.04
803.425	0.04
803.73	0.04
804.035	0.04
804.339	0.04
804.644	0.04
804.949	0.04
805.253	0.04
805.558	0.04
805.862	0.04
806.167	0.04
806.471	0.04
806.775	0.05
807.08	0.04
807.384	0.04
807.688	0.04
807.992	0.05
808.296	0.04
808.6	0.04
808.904	0.04
809.207	0.05
809.511	0.05
809.815	0.05
810.119	0.05
810.422	0.05
810.726	0.05
811.029	0.06
811.332	0.05
811.636	0.06
811.939	0.04
812.242	0.05
812.546	0.04
812.849	0.05
813.152	0.05
813.455	0.06
813.758	0.05
814.06	0.05
814.363	0.05
814.666	0.05
814.969	0.04
815.271	0.05
815.574	0.05
815.877	0.04
816.179	0.04
816.481	0.04
816.784	0.05
817.086	0.03
817.388	0.03
817.69	0.03
817.993	0.03
818.295	0.03
818.597	0.03
818.899	0.02
819.2	0.02
819.502	0.03
819.804	0.03
820.106	0.03
820.407	0.02
820.709	0.03
821.01	0.03
821.312	0.03
821.613	0.02
821.915	0.02
822.216	0.03
822.517	0.03
822.818	0.03
823.119	0.03
823.42	0.03
823.721	0.03
824.022	0.03
824.323	0.03
824.624	0.04
824.925	0.04
825.226	0.04
825.526	0.03
825.827	0.03
826.127	0.04
826.428	0.04
826.728	0.03
827.028	0.03
827.329	0.03
827.629	0.03
827.929	0.03
828.229	0.03
828.529	0.03
828.829	0.03
829.129	0.03
829.429	0.03
829.729	0.03
830.029	0.03
830.328	0.03
830.628	0.02
830.927	0.02
831.227	0.03
831.526	0.03
831.826	0.03
832.125	0.02
832.424	0.02
832.724	0.03
833.023	0.03
833.322	0.04
833.621	0.02
833.92	0.02
834.219	0.02
834.518	0.03
834.816	0.01
835.115	0.02
835.414	0.02
835.712	0.02
836.011	0.02
836.309	0.01
836.608	0
836.906	0.01
837.205	0
837.503	0.01
837.801	0
838.099	-0
838.397	-0.01
838.695	-0.01
838.993	0
839.291	-0.01
839.589	-0.01
839.887	-0.01
840.184	-0.01
840.482	-0.02
840.78	-0.01
841.077	-0.02
841.375	-0.02
841.672	-0.02
841.969	-0.02
842.267	-0.03
842.564	-0.03
842.861	-0.02
843.158	-0.03
843.455	-0.04
843.752	-0.04
844.049	-0.03
844.346	-0.03
844.643	-0.04
844.94	-0.04
845.236	-0.03
845.533	-0.04
845.83	-0.04
846.126	-0.04
846.423	-0.04
846.719	-0.05
847.015	-0.05
847.312	-0.06
847.608	-0.07
847.904	-0.06
848.2	-0.06
848.496	-0.06
848.792	-0.05
849.088	-0.05
849.384	-0.06
849.68	-0.07
849.975	-0.06
850.271	-0.07
850.567	-0.06
850.862	-0.07
851.158	-0.07
851.453	-0.06
851.748	-0.07
852.044	-0.07
852.339	-0.06
852.634	-0.08
852.929	-0.06
853.224	-0.07
853.519	-0.07
853.814	-0.07
854.109	-0.08
854.404	-0.07
854.699	-0.08
854.994	-0.07
855.288	-0.08
855.583	-0.07
855.877	-0.08
856.172	-0.08
856.466	-0.09
856.76	-0.08
857.055	-0.09
857.349	-0.09
857.643	-0.1
857.937	-0.11
858.231	-0.1
858.525	-0.11
858.819	-0.1
859.113	-0.11
859.407	-0.1
859.701	-0.11
859.994	-0.11
860.288	-0.1
860.581	-0.12
860.875	-0.11
861.168	-0.12
861.462	-0.12
861.755	-0.11
862.048	-0.12
862.341	-0.12
862.634	-0.12
862.928	-0.12
863.221	-0.12
863.513	-0.13
863.806	-0.12
864.099	-0.13
864.392	-0.12
864.685	-0.12
864.977	-0.12
865.27	-0.13
865.562	-0.12
865.855	-0.13
866.147	-0.13
866.44	-0.12
866.732	-0.14
867.024	-0.15
867.316	-0.14
867.608	-0.14
867.9	-0.14
868.192	-0.15
868.484	-0.15
868.776	-0.14
869.068	-0.15
869.359	-0.14
869.651	-0.15
869.943	-0.16
870.234	-0.16
870.526	-0.16
870.817	-0.15
871.108	-0.16
871.4	-0.15
871.691	-0.16
871.982	-0.16
872.273	-0.17
872.564	-0.17
872.855	-0.16
873.146	-0.16
873.437	-0.16
873.728	-0.17
874.019	-0.17
874.309	-0.17
874.6	-0.17
874.89	-0.18
875.181	-0.17
875.471	-0.16
875.762	-0.17
876.052	-0.17
876.342	-0.16
876.632	-0.17
876.922	-0.18
877.213	-0.17
877.503	-0.18
877.792	-0.18
878.082	-0.19
878.372	-0.17
878.662	-0.19
878.952	-0.19
879.241	-0.17
879.531	-0.17
879.82	-0.17
880.11	-0.18
880.399	-0.19
880.688	-0.18
880.978	-0.18
881.267	-0.18
