Data from 12-12-AQDScycling_Absorbance__794__00794.txt Node

Date: Tue Dec 12 14:15:14 EST 2023
User: kyuminlee
Spectrometer: FLMS00943
Trigger mode: 0
Integration Time (sec): 1.000000E-1
Scans to average: 1
Electric dark correction enabled: true
Nonlinearity correction enabled: false
Boxcar width: 0
XAxis mode: Wavelengths
Number of Pixels in Spectrum: 2048
>>>>>Begin Spectral Data<<<<<
179.651	0.07
180.037	0.07
180.424	0.07
180.81	-0.38
181.197	0.28
181.583	-0
181.97	0.01
182.356	-0
182.743	-0.38
183.129	0.05
183.515	2.16
183.901	-2.52
184.288	1.06
184.674	0.62
185.06	-1
185.446	-0
185.832	-0
186.218	0.46
186.604	-0
186.99	-0.24
187.376	-0
187.762	-0.32
188.148	0.65
188.534	0.25
188.92	0.07
189.305	0.12
189.691	0.29
190.077	0.21
190.463	0.04
190.848	0.11
191.234	0.09
191.619	0.13
192.005	0.21
192.391	0.15
192.776	0.12
193.161	0.25
193.547	0.19
193.932	0.1
194.318	0.14
194.703	0.08
195.088	0.38
195.473	0.16
195.859	0.12
196.244	0.18
196.629	0.09
197.014	0.16
197.399	0.24
197.784	0.17
198.169	0.17
198.554	0.27
198.939	0.17
199.324	0.3
199.709	0.21
200.094	0.12
200.478	0.18
200.863	0.28
201.248	0.29
201.633	0.16
202.017	0.2
202.402	0.14
202.787	0.3
203.171	0.18
203.556	0.24
203.94	0.25
204.325	0.24
204.709	0.29
205.093	0.11
205.478	0.13
205.862	0.03
206.246	0.24
206.631	0.05
207.015	0.17
207.399	0.29
207.783	0.2
208.167	0.22
208.551	0.27
208.935	0.16
209.319	0.09
209.703	0.25
210.087	0.3
210.471	0.15
210.855	0.1
211.239	0.34
211.623	0.25
212.007	0.36
212.39	0.23
212.774	0.26
213.158	0.11
213.541	0.3
213.925	0.34
214.309	0.42
214.692	0.31
215.076	0.28
215.459	0.19
215.842	0.12
216.226	0.36
216.609	0.43
216.993	0.24
217.376	0.37
217.759	0.24
218.142	0.36
218.525	0.37
218.909	0.4
219.292	0.34
219.675	0.55
220.058	0.47
220.441	0.44
220.824	0.52
221.207	0.71
221.59	0.51
221.973	0.59
222.355	0.65
222.738	0.82
223.121	0.65
223.504	0.68
223.886	0.77
224.269	0.68
224.652	0.61
225.034	0.73
225.417	0.68
225.799	0.83
226.182	0.98
226.564	0.89
226.947	0.83
227.329	0.77
227.711	1.02
228.094	1.06
228.476	0.93
228.858	0.88
229.24	0.83
229.623	0.85
230.005	1.01
230.387	0.88
230.769	0.75
231.151	0.93
231.533	0.99
231.915	1.01
232.297	1.06
232.679	0.94
233.061	1
233.442	1.01
233.824	1.06
234.206	1.2
234.588	1.21
234.969	0.98
235.351	1.02
235.733	1.2
236.114	1.06
236.496	1.04
236.877	1.08
237.259	1.1
237.64	0.97
238.022	1.08
238.403	1.12
238.784	0.97
239.165	1.03
239.547	1.21
239.928	1.11
240.309	1
240.69	1.07
241.071	1.23
241.452	1.13
241.834	0.95
242.215	1.1
242.595	1.08
242.976	1.17
243.357	1.22
243.738	0.96
244.119	1.24
244.5	1.2
244.881	1.29
245.261	1.34
245.642	1.22
246.023	1.19
246.403	1.27
246.784	1.37
247.164	1.3
247.545	1.24
247.925	1.42
248.306	1.26
248.686	1.6
249.067	1.4
249.447	1.44
249.827	1.5
250.207	1.49
250.588	1.35
250.968	1.41
251.348	1.41
251.728	1.51
252.108	1.35
252.488	1.42
252.868	1.35
253.248	1.33
253.628	1.45
254.008	1.47
254.388	1.4
254.768	1.21
255.147	1.36
255.527	1.65
255.907	1.39
256.287	1.3
256.666	1.56
257.046	1.53
257.425	1.54
257.805	1.33
258.184	1.35
258.564	1.44
258.943	1.4
259.323	1.55
259.702	1.53
260.081	1.33
260.461	1.51
260.84	1.43
261.219	1.71
261.598	1.58
261.977	1.52
262.356	1.6
262.736	1.65
263.115	1.73
263.494	1.53
263.873	1.46
264.251	1.54
264.63	1.62
265.009	1.52
265.388	1.4
265.767	1.4
266.145	1.5
266.524	1.49
266.903	1.66
267.281	1.39
267.66	1.63
268.039	1.58
268.417	1.42
268.796	1.59
269.174	1.42
269.552	1.35
269.931	1.49
270.309	1.47
270.687	1.58
271.066	1.69
271.444	1.42
271.822	1.68
272.2	1.5
272.578	1.37
272.956	1.55
273.334	1.42
273.712	1.41
274.09	1.46
274.468	1.41
274.846	1.37
275.224	1.56
275.602	1.57
275.98	2.19
276.357	1.46
276.735	1.42
277.113	1.47
277.49	1.37
277.868	1.27
278.246	1.57
278.623	1.3
279.001	1.45
279.378	1.48
279.756	1.49
280.133	1.72
280.51	1.42
280.888	1.43
281.265	1.37
281.642	1.51
282.019	1.58
282.396	1.59
282.773	1.52
283.151	1.54
283.528	1.64
283.905	1.45
284.282	1.54
284.659	1.57
285.035	1.35
285.412	1.35
285.789	1.56
286.166	1.4
286.543	1.44
286.919	1.59
287.296	1.5
287.673	1.67
288.049	1.54
288.426	1.6
288.802	1.56
289.179	1.46
289.555	1.53
289.932	1.46
290.308	1.36
290.684	1.44
291.061	1.46
291.437	1.66
291.813	1.48
292.189	1.31
292.565	1.33
292.942	1.37
293.318	1.44
293.694	1.42
294.07	1.32
294.446	1.36
294.822	1.72
295.197	1.51
295.573	1.57
295.949	1.42
296.325	1.5
296.701	1.39
297.076	1.56
297.452	1.53
297.828	1.45
298.203	1.48
298.579	1.37
298.954	1.4
299.33	1.47
299.705	1.36
300.081	1.47
300.456	1.36
300.831	1.32
301.206	1.3
301.582	1.46
301.957	1.36
302.332	1.36
302.707	1.23
303.082	1.27
303.457	1.3
303.832	1.27
304.207	1.29
304.582	1.26
304.957	1.23
305.332	1.24
305.707	1.22
306.082	1.2
306.456	1.24
306.831	1.15
307.206	1.14
307.58	1.13
307.955	1.09
308.33	1.11
308.704	1.11
309.079	1.08
309.453	1.1
309.828	1.1
310.202	1.04
310.576	1.06
310.951	1.08
311.325	1.03
311.699	0.99
312.073	1.02
312.447	1.02
312.821	0.99
313.196	1.01
313.57	0.93
313.944	0.95
314.317	0.93
314.691	0.95
315.065	0.95
315.439	0.99
315.813	0.96
316.187	0.93
316.56	1
316.934	0.98
317.308	0.93
317.681	0.93
318.055	0.92
318.428	0.95
318.802	0.96
319.175	0.91
319.549	0.89
319.922	0.93
320.295	0.91
320.669	0.98
321.042	0.97
321.415	0.97
321.788	0.93
322.162	0.9
322.535	0.92
322.908	0.91
323.281	0.93
323.654	0.98
324.027	0.92
324.4	0.95
324.773	0.93
325.145	0.94
325.518	0.94
325.891	0.92
326.264	0.99
326.636	0.97
327.009	0.93
327.382	0.94
327.754	0.96
328.127	0.92
328.499	0.98
328.872	0.97
329.244	0.94
329.616	0.93
329.989	0.93
330.361	0.94
330.733	0.96
331.106	0.96
331.478	1.01
331.85	0.95
332.222	0.95
332.594	1.01
332.966	1.03
333.338	1.04
333.71	1.02
334.082	1.12
334.454	1.05
334.826	1.03
335.197	1.05
335.569	1.05
335.941	1.01
336.312	1.01
336.684	1.06
337.056	1.07
337.427	1.1
337.799	1.04
338.17	1.1
338.542	1.1
338.913	1.08
339.284	1.17
339.656	1.1
340.027	1.13
340.398	1.11
340.769	1.09
341.141	1.16
341.512	1.13
341.883	1.1
342.254	1.2
342.625	1.2
342.996	1.12
343.367	1.19
343.738	1.17
344.108	1.19
344.479	1.21
344.85	1.17
345.221	1.25
345.591	1.17
345.962	1.15
346.333	1.24
346.703	1.14
347.074	1.25
347.444	1.15
347.815	1.22
348.185	1.2
348.556	1.23
348.926	1.31
349.296	1.18
349.666	1.2
350.037	1.12
350.407	1.14
350.777	1.26
351.147	1.25
351.517	1.3
351.887	1.33
352.257	1.42
352.627	1.18
352.997	1.26
353.367	1.42
353.737	1.41
354.106	1.38
354.476	1.3
354.846	1.47
355.216	1.36
355.585	1.48
355.955	1.36
356.324	1.36
356.694	1.52
357.063	1.43
357.433	1.41
357.802	1.41
358.171	1.48
358.541	1.43
358.91	1.53
359.279	1.45
359.648	1.37
360.017	1.5
360.387	1.65
360.756	1.43
361.125	1.51
361.494	1.58
361.863	1.43
362.231	1.52
362.6	1.53
362.969	1.74
363.338	1.5
363.707	1.61
364.075	1.64
364.444	1.42
364.813	1.58
365.181	1.57
365.55	1.56
365.918	1.66
366.287	1.54
366.655	1.69
367.024	1.52
367.392	1.59
367.76	1.61
368.128	1.43
368.497	1.56
368.865	1.61
369.233	1.6
369.601	1.5
369.969	1.54
370.337	1.68
370.705	1.58
371.073	1.61
371.441	1.52
371.809	1.44
372.177	1.49
372.544	1.73
372.912	1.64
373.28	1.55
373.647	1.76
374.015	1.74
374.383	1.77
374.75	1.74
375.118	1.61
375.485	1.66
375.853	1.68
376.22	1.56
376.587	1.55
376.955	1.64
377.322	1.67
377.689	1.45
378.056	1.58
378.423	1.54
378.79	1.65
379.157	1.6
379.524	1.81
379.891	1.48
380.258	1.62
380.625	1.42
380.992	1.49
381.359	1.63
381.726	1.91
382.092	1.51
382.459	1.59
382.826	1.55
383.192	1.59
383.559	1.62
383.925	1.54
384.292	1.5
384.658	1.67
385.025	1.63
385.391	1.91
385.757	1.77
386.123	1.61
386.49	1.51
386.856	1.67
387.222	1.77
387.588	1.48
387.954	1.74
388.32	1.77
388.686	1.51
389.052	1.51
389.418	1.75
389.784	1.56
390.15	1.68
390.515	1.4
390.881	1.81
391.247	1.56
391.613	1.7
391.978	1.51
392.344	1.82
392.709	1.66
393.075	1.7
393.44	1.62
393.806	1.6
394.171	1.51
394.536	1.52
394.902	1.58
395.267	1.59
395.632	1.5
395.997	1.44
396.362	1.53
396.727	1.48
397.092	1.6
397.457	1.64
397.822	1.59
398.187	1.63
398.552	1.57
398.917	1.64
399.282	1.59
399.646	1.55
400.011	1.95
400.376	1.58
400.74	1.51
401.105	1.54
401.47	1.57
401.834	1.54
402.199	1.54
402.563	1.63
402.927	1.61
403.292	1.75
403.656	1.45
404.02	1.61
404.384	2.09
404.749	1.61
405.113	1.73
405.477	1.73
405.841	1.55
406.205	1.57
406.569	1.63
406.933	1.61
407.296	1.58
407.66	1.63
408.024	1.63
408.388	1.95
408.752	1.47
409.115	1.62
409.479	1.6
409.842	1.5
410.206	1.45
410.569	1.58
410.933	1.68
411.296	1.49
411.66	1.6
412.023	1.51
412.386	1.58
412.749	1.52
413.113	1.55
413.476	1.6
413.839	1.6
414.202	1.83
414.565	1.59
414.928	1.5
415.291	1.41
415.654	1.56
416.017	1.47
416.38	1.49
416.742	1.47
417.105	1.52
417.468	1.53
417.83	1.48
418.193	1.65
418.556	1.47
418.918	1.46
419.281	1.61
419.643	1.64
420.005	1.53
420.368	1.55
420.73	1.49
421.092	1.51
421.455	1.72
421.817	1.44
422.179	1.48
422.541	1.43
422.903	1.56
423.265	1.71
423.627	1.53
423.989	1.47
424.351	1.45
424.713	1.55
425.075	1.51
425.436	1.45
425.798	1.56
426.16	1.68
426.521	1.53
426.883	1.53
427.245	1.6
427.606	1.44
427.967	1.4
428.329	1.58
428.69	1.66
429.052	1.42
429.413	1.69
429.774	1.48
430.135	1.51
430.497	1.61
430.858	1.52
431.219	1.47
431.58	1.39
431.941	1.45
432.302	1.45
432.663	1.55
433.024	1.62
433.384	1.61
433.745	1.49
434.106	1.58
434.467	1.46
434.827	1.49
435.188	1.62
435.548	1.69
435.909	1.5
436.269	1.62
436.63	1.49
436.99	1.41
437.351	1.36
437.711	1.45
438.071	1.46
438.431	1.45
438.792	1.5
439.152	1.48
439.512	1.4
439.872	1.46
440.232	1.55
440.592	1.47
440.952	1.49
441.312	1.38
441.671	1.43
442.031	1.47
442.391	1.4
442.751	1.4
443.11	1.43
443.47	1.4
443.83	1.3
444.189	1.38
444.549	1.39
444.908	1.33
445.267	1.38
445.627	1.38
445.986	1.35
446.345	1.28
446.705	1.38
447.064	1.33
447.423	1.31
447.782	1.31
448.141	1.29
448.5	1.29
448.859	1.23
449.218	1.31
449.577	1.32
449.936	1.29
450.295	1.25
450.653	1.27
451.012	1.28
451.371	1.24
451.729	1.2
452.088	1.24
452.447	1.26
452.805	1.23
453.163	1.24
453.522	1.23
453.88	1.18
454.239	1.17
454.597	1.17
454.955	1.12
455.313	1.16
455.671	1.13
456.029	1.13
456.388	1.11
456.746	1.07
457.104	1.1
457.461	1.07
457.819	1.07
458.177	1.05
458.535	1.02
458.893	1.03
459.25	1.01
459.608	1.01
459.966	0.97
460.323	0.95
460.681	0.95
461.038	0.95
461.396	0.94
461.753	0.9
462.111	0.91
462.468	0.9
462.825	0.86
463.182	0.87
463.54	0.86
463.897	0.87
464.254	0.85
464.611	0.84
464.968	0.81
465.325	0.82
465.682	0.79
466.039	0.8
466.395	0.76
466.752	0.76
467.109	0.75
467.466	0.73
467.822	0.73
468.179	0.71
468.535	0.7
468.892	0.69
469.248	0.68
469.605	0.67
469.961	0.66
470.318	0.67
470.674	0.64
471.03	0.63
471.386	0.62
471.743	0.61
472.099	0.6
472.455	0.6
472.811	0.58
473.167	0.58
473.523	0.56
473.879	0.55
474.235	0.55
474.59	0.53
474.946	0.53
475.302	0.52
475.657	0.51
476.013	0.51
476.369	0.49
476.724	0.49
477.08	0.47
477.435	0.47
477.791	0.46
478.146	0.46
478.501	0.45
478.857	0.45
479.212	0.44
479.567	0.41
479.922	0.42
480.277	0.41
480.632	0.39
480.987	0.39
481.342	0.39
481.697	0.38
482.052	0.37
482.407	0.36
482.762	0.35
483.116	0.35
483.471	0.34
483.826	0.34
484.18	0.33
484.535	0.33
484.89	0.32
485.244	0.31
485.598	0.32
485.953	0.3
486.307	0.3
486.661	0.3
487.016	0.28
487.37	0.29
487.724	0.28
488.078	0.28
488.432	0.27
488.786	0.27
489.14	0.26
489.494	0.25
489.848	0.25
490.202	0.25
490.556	0.25
490.91	0.24
491.263	0.24
491.617	0.23
491.971	0.23
492.324	0.23
492.678	0.22
493.031	0.22
493.385	0.21
493.738	0.21
494.091	0.21
494.445	0.21
494.798	0.2
495.151	0.2
495.504	0.2
495.857	0.21
496.21	0.2
496.564	0.19
496.916	0.2
497.269	0.19
497.622	0.18
497.975	0.18
498.328	0.18
498.681	0.17
499.033	0.17
499.386	0.16
499.739	0.16
500.091	0.16
500.444	0.16
500.796	0.16
501.149	0.15
501.501	0.16
501.854	0.15
502.206	0.16
502.558	0.16
502.91	0.15
503.263	0.15
503.615	0.15
503.967	0.15
504.319	0.15
504.671	0.14
505.023	0.14
505.375	0.14
505.726	0.14
506.078	0.13
506.43	0.14
506.782	0.14
507.133	0.14
507.485	0.14
507.837	0.14
508.188	0.14
508.54	0.14
508.891	0.14
509.243	0.13
509.594	0.13
509.945	0.12
510.296	0.13
510.648	0.13
510.999	0.13
511.35	0.12
511.701	0.13
512.052	0.13
512.403	0.13
512.754	0.13
513.105	0.12
513.456	0.12
513.807	0.11
514.157	0.12
514.508	0.12
514.859	0.11
515.209	0.12
515.56	0.12
515.91	0.12
516.261	0.12
516.611	0.11
516.962	0.11
517.312	0.12
517.662	0.12
518.013	0.12
518.363	0.12
518.713	0.12
519.063	0.12
519.413	0.12
519.763	0.11
520.113	0.12
520.463	0.12
520.813	0.12
521.163	0.12
521.512	0.12
521.862	0.12
522.212	0.11
522.562	0.12
522.911	0.12
523.261	0.12
523.61	0.12
523.96	0.11
524.309	0.12
524.658	0.12
525.008	0.12
525.357	0.12
525.706	0.12
526.056	0.11
526.405	0.12
526.754	0.11
527.103	0.11
527.452	0.11
527.801	0.12
528.15	0.12
528.499	0.11
528.847	0.11
529.196	0.12
529.545	0.12
529.893	0.12
530.242	0.12
530.591	0.12
530.939	0.13
531.288	0.12
531.636	0.12
531.985	0.12
532.333	0.12
532.681	0.12
533.029	0.12
533.378	0.12
533.726	0.12
534.074	0.12
534.422	0.11
534.77	0.12
535.118	0.12
535.466	0.12
535.814	0.11
536.162	0.12
536.509	0.13
536.857	0.12
537.205	0.13
537.552	0.12
537.9	0.11
538.248	0.12
538.595	0.12
538.943	0.12
539.29	0.12
539.637	0.12
539.985	0.11
540.332	0.12
540.679	0.12
541.026	0.11
541.373	0.12
541.721	0.11
542.068	0.11
542.415	0.12
542.762	0.12
543.108	0.11
543.455	0.11
543.802	0.11
544.149	0.11
544.496	0.11
544.842	0.11
545.189	0.1
545.535	0.11
545.882	0.12
546.228	0.1
546.575	0.1
546.921	0.1
547.267	0.1
547.614	0.1
547.96	0.11
548.306	0.1
548.652	0.11
548.998	0.12
549.344	0.11
549.69	0.11
550.036	0.11
550.382	0.11
550.728	0.11
551.074	0.11
551.42	0.11
551.765	0.11
552.111	0.12
552.457	0.12
552.802	0.11
553.148	0.11
553.493	0.11
553.839	0.11
554.184	0.11
554.529	0.11
554.875	0.11
555.22	0.12
555.565	0.11
555.91	0.12
556.255	0.12
556.6	0.12
556.945	0.11
557.29	0.11
557.635	0.12
557.98	0.11
558.325	0.12
558.67	0.11
559.014	0.12
559.359	0.12
559.704	0.11
560.048	0.1
560.393	0.12
560.737	0.11
561.082	0.11
561.426	0.11
561.77	0.11
562.115	0.11
562.459	0.11
562.803	0.11
563.147	0.11
563.491	0.11
563.835	0.12
564.179	0.11
564.523	0.12
564.867	0.11
565.211	0.11
565.555	0.12
565.899	0.12
566.242	0.12
566.586	0.11
566.93	0.12
567.273	0.11
567.617	0.11
567.96	0.12
568.304	0.12
568.647	0.11
568.99	0.12
569.334	0.12
569.677	0.12
570.02	0.12
570.363	0.12
570.706	0.12
571.049	0.12
571.392	0.11
571.735	0.12
572.078	0.12
572.421	0.13
572.764	0.12
573.106	0.11
573.449	0.11
573.792	0.12
574.134	0.11
574.477	0.12
574.819	0.11
575.162	0.11
575.504	0.11
575.847	0.1
576.189	0.11
576.531	0.11
576.873	0.11
577.215	0.12
577.558	0.12
577.9	0.11
578.242	0.12
578.584	0.11
578.926	0.12
579.267	0.11
579.609	0.11
579.951	0.11
580.293	0.11
580.634	0.12
580.976	0.12
581.318	0.12
581.659	0.11
582.001	0.11
582.342	0.11
582.683	0.11
583.025	0.1
583.366	0.11
583.707	0.11
584.049	0.11
584.39	0.11
584.731	0.11
585.072	0.11
585.413	0.12
585.754	0.11
586.095	0.11
586.435	0.11
586.776	0.11
587.117	0.11
587.458	0.11
587.798	0.11
588.139	0.11
588.48	0.1
588.82	0.11
589.161	0.1
589.501	0.1
589.841	0.11
590.182	0.1
590.522	0.1
590.862	0.11
591.202	0.11
591.542	0.11
591.882	0.11
592.222	0.11
592.562	0.1
592.902	0.11
593.242	0.1
593.582	0.11
593.922	0.11
594.261	0.1
594.601	0.1
594.941	0.1
595.28	0.11
595.62	0.11
595.959	0.11
596.299	0.1
596.638	0.11
596.977	0.11
597.317	0.12
597.656	0.11
597.995	0.11
598.334	0.11
598.673	0.11
599.012	0.1
599.351	0.11
599.69	0.11
600.029	0.13
600.368	0.12
600.707	0.12
601.046	0.12
601.384	0.12
601.723	0.12
602.061	0.11
602.4	0.12
602.738	0.11
603.077	0.12
603.415	0.1
603.754	0.11
604.092	0.11
604.43	0.11
604.768	0.11
605.107	0.11
605.445	0.11
605.783	0.1
606.121	0.11
606.459	0.11
606.796	0.1
607.134	0.1
607.472	0.1
607.81	0.11
608.148	0.11
608.485	0.11
608.823	0.1
609.16	0.11
609.498	0.11
609.835	0.11
610.173	0.11
610.51	0.11
610.847	0.11
611.185	0.11
611.522	0.11
611.859	0.11
612.196	0.11
612.533	0.12
612.87	0.12
613.207	0.12
613.544	0.11
613.881	0.12
614.217	0.11
614.554	0.11
614.891	0.11
615.228	0.11
615.564	0.12
615.901	0.12
616.237	0.11
616.574	0.11
616.91	0.12
617.246	0.12
617.583	0.13
617.919	0.12
618.255	0.12
618.591	0.12
618.927	0.12
619.263	0.12
619.599	0.12
619.935	0.11
620.271	0.12
620.607	0.11
620.943	0.12
621.279	0.11
621.614	0.11
621.95	0.12
622.286	0.11
622.621	0.11
622.957	0.12
623.292	0.11
623.627	0.12
623.963	0.1
624.298	0.11
624.633	0.11
624.968	0.11
625.304	0.11
625.639	0.11
625.974	0.1
626.309	0.11
626.644	0.11
626.979	0.11
627.313	0.11
627.648	0.11
627.983	0.11
628.318	0.1
628.652	0.1
628.987	0.11
629.321	0.11
629.656	0.1
629.99	0.1
630.325	0.1
630.659	0.1
630.993	0.1
631.327	0.1
631.662	0.09
631.996	0.09
632.33	0.1
632.664	0.1
632.998	0.09
633.332	0.09
633.666	0.1
633.999	0.09
634.333	0.09
634.667	0.09
635.001	0.09
635.334	0.09
635.668	0.09
636.001	0.09
636.335	0.09
636.668	0.09
637.001	0.08
637.335	0.1
637.668	0.09
638.001	0.09
638.334	0.09
638.668	0.09
639.001	0.09
639.334	0.09
639.667	0.08
639.999	0.09
640.332	0.09
640.665	0.09
640.998	0.09
641.331	0.09
641.663	0.09
641.996	0.09
642.328	0.1
642.661	0.09
642.993	0.09
643.326	0.1
643.658	0.09
643.99	0.09
644.323	0.1
644.655	0.1
644.987	0.1
645.319	0.1
645.651	0.1
645.983	0.1
646.315	0.09
646.647	0.11
646.979	0.1
647.31	0.11
647.642	0.1
647.974	0.1
648.305	0.1
648.637	0.09
648.968	0.1
649.3	0.1
649.631	0.1
649.963	0.09
650.294	0.1
650.625	0.1
650.957	0.1
651.288	0.1
651.619	0.1
651.95	0.1
652.281	0.1
652.612	0.1
652.943	0.1
653.274	0.11
653.604	0.1
653.935	0.1
654.266	0.1
654.596	0.1
654.927	0.1
655.258	0.1
655.588	0.1
655.918	0.1
656.249	0.08
656.579	0.09
656.909	0.09
657.24	0.09
657.57	0.1
657.9	0.09
658.23	0.1
658.56	0.09
658.89	0.1
659.22	0.1
659.55	0.09
659.88	0.1
660.209	0.09
660.539	0.1
660.869	0.09
661.198	0.1
661.528	0.09
661.857	0.09
662.187	0.1
662.516	0.1
662.846	0.09
663.175	0.09
663.504	0.09
663.833	0.09
664.163	0.09
664.492	0.09
664.821	0.09
665.15	0.09
665.479	0.09
665.807	0.09
666.136	0.09
666.465	0.09
666.794	0.09
667.122	0.09
667.451	0.1
667.78	0.09
668.108	0.1
668.437	0.09
668.765	0.1
669.093	0.1
669.422	0.1
669.75	0.09
670.078	0.09
670.406	0.1
670.734	0.1
671.062	0.1
671.39	0.09
671.718	0.1
672.046	0.1
672.374	0.09
672.702	0.09
673.029	0.08
673.357	0.09
673.685	0.1
674.012	0.09
674.34	0.09
674.667	0.09
674.995	0.1
675.322	0.1
675.649	0.09
675.977	0.09
676.304	0.09
676.631	0.09
676.958	0.09
677.285	0.08
677.612	0.08
677.939	0.09
678.266	0.09
678.593	0.08
678.92	0.09
679.246	0.08
679.573	0.09
679.9	0.08
680.226	0.09
680.553	0.08
680.879	0.09
681.206	0.09
681.532	0.08
681.858	0.09
682.184	0.09
682.511	0.09
682.837	0.08
683.163	0.09
683.489	0.09
683.815	0.08
684.141	0.09
684.467	0.09
684.793	0.08
685.118	0.09
685.444	0.09
685.77	0.08
686.095	0.09
686.421	0.08
686.746	0.09
687.072	0.09
687.397	0.08
687.723	0.09
688.048	0.09
688.373	0.08
688.698	0.08
689.023	0.08
689.349	0.08
689.674	0.08
689.999	0.08
690.323	0.07
690.648	0.08
690.973	0.07
691.298	0.07
691.623	0.07
691.947	0.08
692.272	0.08
692.596	0.08
692.921	0.08
693.245	0.08
693.57	0.09
693.894	0.09
694.218	0.09
694.543	0.08
694.867	0.08
695.191	0.08
695.515	0.09
695.839	0.08
696.163	0.09
696.487	0.09
696.811	0.08
697.135	0.09
697.458	0.08
697.782	0.08
698.106	0.08
698.429	0.09
698.753	0.08
699.076	0.08
699.4	0.08
699.723	0.08
700.046	0.08
700.37	0.08
700.693	0.08
701.016	0.08
701.339	0.08
701.662	0.08
701.985	0.08
702.308	0.08
702.631	0.08
702.954	0.08
703.277	0.08
703.599	0.08
703.922	0.07
704.245	0.08
704.567	0.07
704.89	0.07
705.212	0.07
705.535	0.07
705.857	0.07
706.179	0.07
706.502	0.07
706.824	0.07
707.146	0.07
707.468	0.08
707.79	0.07
708.112	0.07
708.434	0.07
708.756	0.07
709.078	0.08
709.399	0.07
709.721	0.07
710.043	0.08
710.364	0.07
710.686	0.08
711.007	0.08
711.329	0.08
711.65	0.08
711.972	0.08
712.293	0.08
712.614	0.08
712.935	0.08
713.256	0.08
713.577	0.08
713.898	0.08
714.219	0.07
714.54	0.08
714.861	0.07
715.182	0.07
715.503	0.07
715.823	0.07
716.144	0.06
716.464	0.06
716.785	0.06
717.105	0.07
717.426	0.07
717.746	0.07
718.066	0.05
718.387	0.07
718.707	0.07
719.027	0.06
719.347	0.06
719.667	0.07
719.987	0.06
720.307	0.06
720.627	0.06
720.947	0.07
721.266	0.06
721.586	0.06
721.906	0.06
722.225	0.06
722.545	0.06
722.864	0.06
723.184	0.07
723.503	0.06
723.823	0.06
724.142	0.06
724.461	0.07
724.78	0.06
725.099	0.07
725.418	0.07
725.737	0.06
726.056	0.07
726.375	0.07
726.694	0.06
727.013	0.06
727.331	0.07
727.65	0.06
727.969	0.07
728.287	0.06
728.606	0.07
728.924	0.06
729.242	0.06
729.561	0.07
729.879	0.06
730.197	0.06
730.515	0.06
730.834	0.06
731.152	0.06
731.47	0.06
731.788	0.06
732.105	0.06
732.423	0.05
732.741	0.07
733.059	0.07
733.376	0.07
733.694	0.06
734.012	0.06
734.329	0.07
734.647	0.06
734.964	0.08
735.281	0.07
735.599	0.07
735.916	0.08
736.233	0.07
736.55	0.07
736.867	0.07
737.184	0.07
737.501	0.06
737.818	0.07
738.135	0.08
738.452	0.07
738.768	0.07
739.085	0.07
739.402	0.06
739.718	0.07
740.035	0.07
740.351	0.07
740.668	0.07
740.984	0.06
741.3	0.06
741.617	0.06
741.933	0.06
742.249	0.07
742.565	0.07
742.881	0.07
743.197	0.07
743.513	0.06
743.829	0.06
744.144	0.07
744.46	0.07
744.776	0.07
745.091	0.07
745.407	0.06
745.722	0.06
746.038	0.06
746.353	0.05
746.669	0.07
746.984	0.06
747.299	0.05
747.614	0.06
747.93	0.07
748.245	0.05
748.56	0.05
748.875	0.05
749.189	0.06
749.504	0.06
749.819	0.06
750.134	0.05
750.448	0.05
750.763	0.06
751.078	0.05
751.392	0.05
751.707	0.06
752.021	0.06
752.335	0.06
752.65	0.06
752.964	0.05
753.278	0.06
753.592	0.06
753.906	0.05
754.22	0.06
754.534	0.07
754.848	0.06
755.162	0.06
755.476	0.07
755.789	0.06
756.103	0.05
756.417	0.06
756.73	0.06
757.044	0.06
757.357	0.06
757.671	0.06
757.984	0.06
758.297	0.06
758.61	0.06
758.924	0.06
759.237	0.06
759.55	0.06
759.863	0.05
760.176	0.06
760.488	0.05
760.801	0.05
761.114	0.05
761.427	0.05
761.739	0.06
762.052	0.06
762.365	0.05
762.677	0.06
762.99	0.05
763.302	0.06
763.614	0.05
763.926	0.06
764.239	0.05
764.551	0.05
764.863	0.06
765.175	0.06
765.487	0.06
765.799	0.05
766.111	0.05
766.423	0.06
766.734	0.06
767.046	0.05
767.358	0.06
767.669	0.05
767.981	0.06
768.292	0.05
768.604	0.05
768.915	0.05
769.226	0.05
769.537	0.05
769.849	0.06
770.16	0.05
770.471	0.04
770.782	0.04
771.093	0.05
771.404	0.04
771.715	0.05
772.025	0.05
772.336	0.05
772.647	0.04
772.957	0.06
773.268	0.05
773.578	0.05
773.889	0.05
774.199	0.06
774.51	0.06
774.82	0.05
775.13	0.06
775.44	0.06
775.75	0.06
776.06	0.06
776.37	0.05
776.68	0.05
776.99	0.06
777.3	0.05
777.61	0.07
777.92	0.06
778.229	0.06
778.539	0.06
778.848	0.05
779.158	0.06
779.467	0.06
779.777	0.06
780.086	0.06
780.395	0.05
780.704	0.05
781.013	0.05
781.323	0.05
781.632	0.05
781.941	0.06
782.249	0.05
782.558	0.05
782.867	0.05
783.176	0.04
783.485	0.04
783.793	0.05
784.102	0.05
784.41	0.06
784.719	0.05
785.027	0.04
785.335	0.05
785.644	0.05
785.952	0.05
786.26	0.05
786.568	0.05
786.876	0.05
787.184	0.05
787.492	0.05
787.8	0.05
788.108	0.05
788.416	0.05
788.723	0.05
789.031	0.05
789.338	0.05
789.646	0.05
789.953	0.06
790.261	0.05
790.568	0.06
790.876	0.05
791.183	0.05
791.49	0.05
791.797	0.05
792.104	0.05
792.411	0.06
792.718	0.05
793.025	0.05
793.332	0.05
793.639	0.06
793.945	0.06
794.252	0.06
794.559	0.05
794.865	0.06
795.172	0.06
795.478	0.05
795.784	0.06
796.091	0.06
796.397	0.06
796.703	0.06
797.009	0.06
797.315	0.07
797.622	0.06
797.927	0.06
798.233	0.06
798.539	0.06
798.845	0.06
799.151	0.06
799.456	0.07
799.762	0.06
800.068	0.06
800.373	0.07
800.679	0.06
800.984	0.06
801.289	0.05
801.595	0.06
801.9	0.07
802.205	0.05
802.51	0.07
802.815	0.07
803.12	0.06
803.425	0.06
803.73	0.06
804.035	0.06
804.339	0.05
804.644	0.05
804.949	0.05
805.253	0.05
805.558	0.06
805.862	0.05
806.167	0.06
806.471	0.05
806.775	0.05
807.08	0.05
807.384	0.06
807.688	0.06
807.992	0.06
808.296	0.06
808.6	0.06
808.904	0.05
809.207	0.05
809.511	0.06
809.815	0.06
810.119	0.06
810.422	0.06
810.726	0.07
811.029	0.07
811.332	0.06
811.636	0.07
811.939	0.06
812.242	0.06
812.546	0.06
812.849	0.06
813.152	0.07
813.455	0.06
813.758	0.07
814.06	0.06
814.363	0.07
814.666	0.07
814.969	0.06
815.271	0.07
815.574	0.06
815.877	0.06
816.179	0.06
816.481	0.05
816.784	0.06
817.086	0.05
817.388	0.05
817.69	0.04
817.993	0.04
818.295	0.05
818.597	0.04
818.899	0.04
819.2	0.04
819.502	0.04
819.804	0.05
820.106	0.04
820.407	0.04
820.709	0.05
821.01	0.04
821.312	0.05
821.613	0.04
821.915	0.04
822.216	0.04
822.517	0.04
822.818	0.03
823.119	0.05
823.42	0.05
823.721	0.03
824.022	0.04
824.323	0.04
824.624	0.03
824.925	0.04
825.226	0.05
825.526	0.04
825.827	0.04
826.127	0.04
826.428	0.04
826.728	0.04
827.028	0.03
827.329	0.03
827.629	0.03
827.929	0.04
828.229	0.03
828.529	0.04
828.829	0.04
829.129	0.04
829.429	0.04
829.729	0.03
830.029	0.03
830.328	0.03
830.628	0.02
830.927	0.03
831.227	0.03
831.526	0.03
831.826	0.03
832.125	0.03
832.424	0.04
832.724	0.03
833.023	0.03
833.322	0.03
833.621	0.03
833.92	0.02
834.219	0.02
834.518	0.02
834.816	0.02
835.115	0.03
835.414	0.02
835.712	0.02
836.011	0.02
836.309	0.02
836.608	0.01
836.906	0.01
837.205	-0
837.503	0
837.801	0.01
838.099	-0.01
838.397	-0.01
838.695	-0
838.993	0
839.291	-0.01
839.589	-0
839.887	-0.01
840.184	-0.01
840.482	-0.02
840.78	-0.01
841.077	-0.01
841.375	-0.01
841.672	-0.01
841.969	-0.01
842.267	-0.01
842.564	-0.01
842.861	-0.01
843.158	-0.01
843.455	-0.02
843.752	-0.02
844.049	-0.02
844.346	-0.02
844.643	-0.02
844.94	-0.01
845.236	-0.01
845.533	-0.02
845.83	-0.02
846.126	-0.02
846.423	-0.02
846.719	-0.04
847.015	-0.02
847.312	-0.03
847.608	-0.04
847.904	-0.03
848.2	-0.04
848.496	-0.03
848.792	-0.03
849.088	-0.02
849.384	-0.03
849.68	-0.04
849.975	-0.03
850.271	-0.04
850.567	-0.05
850.862	-0.05
851.158	-0.04
851.453	-0.04
851.748	-0.06
852.044	-0.04
852.339	-0.04
852.634	-0.07
852.929	-0.04
853.224	-0.06
853.519	-0.05
853.814	-0.05
854.109	-0.06
854.404	-0.06
854.699	-0.05
854.994	-0.05
855.288	-0.05
855.583	-0.05
855.877	-0.06
856.172	-0.06
856.466	-0.06
856.76	-0.07
857.055	-0.06
857.349	-0.07
857.643	-0.07
857.937	-0.08
858.231	-0.08
858.525	-0.09
858.819	-0.08
859.113	-0.11
859.407	-0.1
859.701	-0.1
859.994	-0.1
860.288	-0.09
860.581	-0.1
860.875	-0.1
861.168	-0.09
861.462	-0.1
861.755	-0.09
862.048	-0.1
862.341	-0.1
862.634	-0.11
862.928	-0.1
863.221	-0.1
863.513	-0.11
863.806	-0.11
864.099	-0.12
864.392	-0.11
864.685	-0.1
864.977	-0.11
865.27	-0.12
865.562	-0.11
865.855	-0.11
866.147	-0.12
866.44	-0.1
866.732	-0.12
867.024	-0.13
867.316	-0.12
867.608	-0.13
867.9	-0.12
868.192	-0.12
868.484	-0.12
868.776	-0.14
869.068	-0.11
869.359	-0.13
869.651	-0.13
869.943	-0.15
870.234	-0.13
870.526	-0.14
870.817	-0.15
871.108	-0.12
871.4	-0.14
871.691	-0.15
871.982	-0.15
872.273	-0.16
872.564	-0.14
872.855	-0.15
873.146	-0.15
873.437	-0.15
873.728	-0.16
874.019	-0.15
874.309	-0.16
874.6	-0.16
874.89	-0.15
875.181	-0.15
875.471	-0.16
875.762	-0.16
876.052	-0.16
876.342	-0.15
876.632	-0.16
876.922	-0.17
877.213	-0.15
877.503	-0.17
877.792	-0.16
878.082	-0.16
878.372	-0.15
878.662	-0.18
878.952	-0.17
879.241	-0.16
879.531	-0.16
879.82	-0.16
880.11	-0.16
880.399	-0.15
880.688	-0.16
880.978	-0.16
881.267	-0.16
